 PENELOPE (v. 2014)  Material data file ...............
 Material:                 Sn_B_0.57_0.23                                
 Mass density = 2.61781731E+00 g/cm**3
 Number of elements in the molecule =  4
   atomic number =  1,  atoms/molecule = 1.00000000E+00
   atomic number =  6,  atoms/molecule = 4.99982168E-01
   atomic number = 50,  atoms/molecule = 1.68373175E-01
   atomic number =  5,  atoms/molecule = 7.46014586E-01
 Mean excitation energy = 1.86199022E+02 eV
 Number of oscillators = 19 (E/P inelastic model)
   1  3.57475444E+00  0.00000000E+00  1.48861657E+01   0  30
   2  3.36746350E-01  1.20000000E+01  2.47543002E+01  50  30
   3  1.00000000E+00  1.36000000E+01  2.84697625E+01   1  30
   4  9.99964336E-01  1.65900000E+01  3.44373001E+01   6  30
   5  1.68373175E+00  2.84000000E+01  5.82212095E+01  50  30
   6  6.73492699E-01  9.30000000E+01  1.89728207E+02  50  12
   7  3.36746350E-01  1.02000000E+02  2.08041986E+02  50  11
   8  3.36746350E-01  1.41000000E+02  2.87565411E+02  50  10
   9  1.49202917E+00  1.92000000E+02  3.91624214E+02   5   1
  10  9.99964336E-01  2.88000000E+02  5.87353403E+02   6   1
  11  1.01023905E+00  4.89000000E+02  9.97238332E+02  50   9
  12  6.73492699E-01  4.97000000E+02  1.01354552E+03  50   8
  13  6.73492699E-01  7.19000000E+02  1.46626575E+03  50   7
  14  3.36746350E-01  7.61000000E+02  1.55191132E+03  50   6
  15  3.36746350E-01  8.88000000E+02  1.81090170E+03  50   5
  16  6.73492699E-01  3.93300000E+03  8.02056621E+03  50   4
  17  3.36746350E-01  4.16000000E+03  8.48348626E+03  50   3
  18  3.36746350E-01  4.46900000E+03  9.11362971E+03  50   2
  19  3.36746350E-01  2.92040000E+04  5.95556993E+04  50   1
 Number of shells = 19 (Compton IA model)
   1  3.57475444E+00  0.00000000E+00  8.93148131E-01   0  30
   2  3.36746350E-01  1.20000000E+01  1.10088000E+00  50  30
   3  1.00000000E+00  1.36000000E+01  8.48807000E-01   1  30
   4  9.99964336E-01  1.65900000E+01  8.03154000E-01   6  30
   5  1.68373175E+00  2.84000000E+01  1.92296200E-01  50  30
   6  6.73492699E-01  9.30000000E+01  2.16021000E-01  50  12
   7  3.36746350E-01  1.02000000E+02  2.09348000E-01  50  11
   8  3.36746350E-01  1.41000000E+02  3.22001000E-01  50  10
   9  1.49202917E+00  1.92000000E+02  1.85913000E-01   5   1
  10  9.99964336E-01  2.88000000E+02  1.53080000E-01   6   1
  11  1.01023905E+00  4.89000000E+02  5.68648000E-02  50   9
  12  6.73492699E-01  4.97000000E+02  5.62946000E-02  50   8
  13  6.73492699E-01  7.19000000E+02  8.38634000E-02  50   7
  14  3.36746350E-01  7.61000000E+02  8.14036000E-02  50   6
  15  3.36746350E-01  8.88000000E+02  1.36927000E-01  50   5
  16  6.73492699E-01  3.93300000E+03  3.04471000E-02  50   4
  17  3.36746350E-01  4.16000000E+03  2.91768000E-02  50   3
  18  3.36746350E-01  4.46900000E+03  5.86085000E-02  50   2
  19  3.36746350E-01  2.92040000E+04  1.63105000E-02  50   1
 *** RELAX:  Z =  1,  no. of shells =  1,  no. of transitions =    0
   1 1s1/2 1  1.36000E+01  0.00000E+00  8.48807E-01
 *** RELAX:  Z =  6,  no. of shells =  3,  no. of transitions =    8
   1 1s1/2 2  2.88000E+02  6.14394E-02  1.53080E-01
   2 2s1/2 2  1.65900E+01  0.00000E+00  8.03154E-01
   3 2p1/2 2  1.12600E+01  0.00000E+00  4.88373E-01
   1  3  0  5.61488E-04  2.77000E+02
   1  4  0  1.12060E-03  2.77000E+02
   1  2  2  4.13609E-01  2.55890E+02
   1  2  3  1.36190E-01  2.64460E+02
   1  2  4  2.71099E-01  2.64470E+02
   1  3  3  4.20748E-03  2.73030E+02
   1  3  4  1.10012E-01  2.73040E+02
   1  4  4  6.32008E-02  2.73050E+02
 *** RELAX:  Z = 50,  no. of shells = 16,  no. of transitions =  751
   1 1s1/2 2  2.92040E+04  8.53000E+00  1.63105E-02
   2 2s1/2 2  4.46900E+03  2.40000E+00  5.86085E-02
   3 2p1/2 2  4.16000E+03  2.64000E+00  2.91768E-02
   4 2p3/2 4  3.93300E+03  2.43000E+00  3.04471E-02
   5 3s1/2 2  8.88000E+02  9.60000E+00  1.36927E-01
   6 3p1/2 2  7.61000E+02  2.85000E+00  8.14036E-02
   7 3p3/2 4  7.19000E+02  3.30000E+00  8.38634E-02
   8 3d3/2 4  4.97000E+02  4.30000E-01  5.62946E-02
   9 3d5/2 6  4.89000E+02  4.40000E-01  5.68648E-02
  10 4s1/2 2  1.41000E+02  3.40000E+00  3.22001E-01
  11 4p1/2 2  1.02000E+02  1.70000E+01  2.09348E-01
  12 4p3/2 4  9.30000E+01  1.70000E+01  2.16021E-01
  13 4d3/2 4  2.90000E+01  8.00000E-02  1.90708E-01
  14 4d5/2 6  2.80000E+01  8.00000E-02  1.93355E-01
  17 5s1/2 2  1.20000E+01  0.00000E+00  1.10088E+00
  18 5p1/2 2  7.34000E+00  0.00000E+00  8.23498E-01
   1  3  0  2.48181E-01  2.50440E+04
   1  4  0  4.64342E-01  2.52714E+04
   1  6  0  4.18921E-02  2.84444E+04
   1  7  0  8.13413E-02  2.84863E+04
   1  8  0  3.36211E-04  2.87102E+04
   1  9  0  4.65142E-04  2.87162E+04
   1 11  0  8.58463E-03  2.90804E+04
   1 12  0  1.67661E-02  2.90882E+04
   1 13  0  4.97472E-05  2.91505E+04
   1 14  0  6.84092E-05  2.91516E+04
   1 18  0  1.71861E-04  2.91777E+04
   1 19  0  3.12041E-04  2.91782E+04
   1  2  2  1.04630E-02  2.03034E+04
   1  2  3  1.22577E-02  2.05829E+04
   1  2  4  1.60274E-02  2.08169E+04
   1  2  5  3.64557E-03  2.38747E+04
   1  2  6  2.27313E-03  2.39903E+04
   1  2  7  2.98891E-03  2.40334E+04
   1  2  8  1.90837E-04  2.42401E+04
   1  2  9  2.16222E-04  2.42491E+04
   1  2 10  7.42979E-04  2.46009E+04
   1  2 11  4.28048E-04  2.46401E+04
   1  2 12  5.57472E-04  2.46479E+04
   1  2 13  2.88297E-05  2.47102E+04
   1  2 14  3.22760E-05  2.47113E+04
   1  2 17  8.99343E-05  2.47303E+04
   1  2 18  1.22205E-05  2.47374E+04
   1  2 19  1.56669E-05  2.47379E+04
   1  3  3  1.63952E-03  2.08624E+04
   1  3  4  3.52383E-02  2.10964E+04
   1  3  5  1.76864E-03  2.41542E+04
   1  3  6  5.46488E-04  2.42698E+04
   1  3  7  5.49034E-03  2.43129E+04
   1  3  8  2.35644E-04  2.45196E+04
   1  3  9  8.03446E-04  2.45286E+04
   1  3 10  3.47186E-04  2.48804E+04
   1  3 11  1.01214E-04  2.49196E+04
   1  3 12  9.92120E-04  2.49274E+04
   1  3 13  3.50953E-05  2.49897E+04
   1  3 14  1.18760E-04  2.49908E+04
   1  3 17  4.16761E-05  2.50098E+04
   1  3 18  2.82018E-06  2.50169E+04
   1  3 19  2.78900E-05  2.50174E+04
   1  4  4  1.79448E-02  2.13304E+04
   1  4  5  2.28063E-03  2.43882E+04
   1  4  6  5.38260E-03  2.45038E+04
   1  4  7  5.73591E-03  2.45469E+04
   1  4  8  9.64476E-04  2.47536E+04
   1  4  9  8.96833E-04  2.47626E+04
   1  4 10  4.46838E-04  2.51144E+04
   1  4 11  9.80201E-04  2.51536E+04
   1  4 12  1.04219E-03  2.51614E+04
   1  4 13  1.43831E-04  2.52237E+04
   1  4 14  1.32856E-04  2.52248E+04
   1  4 17  5.35837E-05  2.52438E+04
   1  4 18  2.82018E-05  2.52509E+04
   1  4 19  2.91421E-05  2.52514E+04
   1  5  5  3.12731E-04  2.74459E+04
   1  5  6  3.30916E-04  2.75616E+04
   1  5  7  4.28672E-04  2.76046E+04
   1  5  8  2.56963E-05  2.78114E+04
   1  5  9  2.82024E-05  2.78203E+04
   1  5 10  1.27232E-04  2.81721E+04
   1  5 11  6.23583E-05  2.82113E+04
   1  5 12  8.02206E-05  2.82192E+04
   1  5 13  3.76042E-06  2.82815E+04
   1  5 14  4.38714E-06  2.82826E+04
   1  5 17  1.53552E-05  2.83016E+04
   1  5 18  1.88006E-06  2.83087E+04
   1  5 19  2.19343E-06  2.83092E+04
   1  6  6  4.35559E-05  2.76773E+04
   1  6  7  8.51694E-04  2.77203E+04
   1  6  8  2.82013E-05  2.79271E+04
   1  6  9  9.61980E-05  2.79360E+04
   1  6 10  6.51775E-05  2.82878E+04
   1  6 11  1.59802E-05  2.83270E+04
   1  6 12  1.54176E-04  2.83348E+04
   1  6 13  4.07361E-06  2.83971E+04
   1  6 14  1.44144E-05  2.83983E+04
   1  6 17  7.83378E-06  2.84173E+04
   1  6 18  3.13356E-07  2.84244E+04
   1  6 19  4.38697E-06  2.84249E+04
   1  7  7  4.59680E-04  2.77634E+04
   1  7  8  1.22200E-04  2.79701E+04
   1  7  9  1.10928E-04  2.79791E+04
   1  7 10  8.39773E-05  2.83309E+04
   1  7 11  1.55423E-04  2.83700E+04
   1  7 12  1.66999E-04  2.83779E+04
   1  7 13  1.81741E-05  2.84402E+04
   1  7 14  1.66083E-05  2.84413E+04
   1  7 17  1.00268E-05  2.84603E+04
   1  7 18  4.38691E-06  2.84674E+04
   1  7 19  4.70025E-06  2.84679E+04
   1  8  9  1.40271E-05  2.81858E+04
   1  8 10  4.87885E-06  2.85376E+04
   1  8 11  4.87885E-06  2.85768E+04
   1  8 12  2.07353E-05  2.85846E+04
   1  8 14  2.13441E-06  2.86480E+04
   1  8 17  6.09856E-07  2.86670E+04
   1  8 19  6.09856E-07  2.86747E+04
   1  9  9  3.48310E-06  2.81948E+04
   1  9 10  5.38282E-06  2.85466E+04
   1  9 11  1.70979E-05  2.85857E+04
   1  9 12  1.93152E-05  2.85936E+04
   1  9 13  2.21636E-06  2.86559E+04
   1  9 14  9.49919E-07  2.86570E+04
   1  9 17  6.33273E-07  2.86760E+04
   1  9 18  6.33273E-07  2.86831E+04
   1  9 19  6.33273E-07  2.86836E+04
   1 10 10  1.32276E-05  2.88984E+04
   1 10 11  1.25826E-05  2.89375E+04
   1 10 12  1.61310E-05  2.89454E+04
   1 10 13  6.45282E-07  2.90077E+04
   1 10 14  9.67931E-07  2.90088E+04
   1 10 17  3.22650E-06  2.90278E+04
   1 10 18  3.22650E-07  2.90349E+04
   1 10 19  3.22650E-07  2.90354E+04
   1 11 11  1.50284E-06  2.89767E+04
   1 11 12  2.70528E-05  2.89846E+04
   1 11 13  6.01174E-07  2.90469E+04
   1 11 14  2.40470E-06  2.90480E+04
   1 11 17  1.50284E-06  2.90670E+04
   1 11 19  9.01769E-07  2.90746E+04
   1 12 12  1.54482E-05  2.89924E+04
   1 12 13  3.21843E-06  2.90547E+04
   1 12 14  2.89651E-06  2.90558E+04
   1 12 17  1.93091E-06  2.90748E+04
   1 12 18  9.65511E-07  2.90819E+04
   1 12 19  9.65511E-07  2.90824E+04
   1 13 14  4.72032E-07  2.91181E+04
   1 17 17  3.13361E-07  2.91572E+04
   2  3  0  2.02552E-05  2.79500E+02
   2  4  0  2.70912E-04  5.13500E+02
   2  6  0  1.09711E-02  3.70833E+03
   2  7  0  1.78552E-02  3.75039E+03
   2  8  0  1.38641E-04  3.97163E+03
   2  9  0  2.06912E-04  3.98000E+03
   2 11  0  2.14322E-03  4.33666E+03
   2 12  0  3.54693E-03  4.34450E+03
   2 13  0  1.39921E-05  4.40681E+03
   2 14  0  2.10792E-05  4.40791E+03
   2 18  0  4.90124E-05  4.43402E+03
   2 19  0  7.62786E-05  4.43453E+03
   2  3 10  5.83520E-02  1.36690E+02
   2  3 11  4.10540E-02  1.75860E+02
   2  3 12  5.38980E-02  1.83700E+02
   2  3 13  1.23240E-02  2.46010E+02
   2  3 14  2.01090E-02  2.47110E+02
   2  3 17  6.83859E-03  2.66110E+02
   2  3 18  1.12440E-03  2.73220E+02
   2  3 19  1.44180E-03  2.73730E+02
   2  4 10  8.00973E-02  3.70690E+02
   2  4 11  3.52981E-02  4.09860E+02
   2  4 12  6.78992E-02  4.17700E+02
   2  4 13  5.42662E-02  4.80010E+02
   2  4 14  7.02152E-02  4.81110E+02
   2  4 17  9.42833E-03  5.00110E+02
   2  4 18  9.86493E-04  5.07220E+02
   2  4 19  1.87191E-03  5.07730E+02
   2  5  5  1.42199E-02  2.70220E+03
   2  5  6  2.81618E-02  2.81789E+03
   2  5  7  5.26386E-02  2.86093E+03
   2  5  8  4.20607E-02  3.06768E+03
   2  5  9  5.99385E-02  3.07663E+03
   2  5 10  4.96466E-03  3.42844E+03
   2  5 11  5.19726E-03  3.46761E+03
   2  5 12  9.61223E-03  3.47545E+03
   2  5 13  5.49486E-03  3.53776E+03
   2  5 14  7.76444E-03  3.53886E+03
   2  5 17  5.88816E-04  3.55786E+03
   2  5 18  1.49679E-04  3.56497E+03
   2  5 19  2.70508E-04  3.56548E+03
   2  6  6  1.74931E-04  2.93358E+03
   2  6  7  1.16230E-03  2.97662E+03
   2  6  8  1.11720E-03  3.18337E+03
   2  6  9  1.52840E-02  3.19232E+03
   2  6 10  3.97911E-03  3.54413E+03
   2  6 11  3.51661E-05  3.58330E+03
   2  6 12  2.01981E-04  3.59114E+03
   2  6 13  1.48780E-04  3.65345E+03
   2  6 14  1.34980E-03  3.65455E+03
   2  6 17  4.53561E-04  3.67355E+03
   2  6 18  9.01703E-07  3.68066E+03
   2  6 19  5.41012E-06  3.68117E+03
   2  7  7  1.22530E-03  3.01966E+03
   2  7  8  1.14580E-02  3.22641E+03
   2  7  9  7.87350E-03  3.23536E+03
   2  7 10  7.43910E-03  3.58717E+03
   2  7 11  2.01980E-04  3.62634E+03
   2  7 12  3.47150E-04  3.63418E+03
   2  7 13  9.08000E-04  3.69649E+03
   2  7 14  6.48300E-04  3.69759E+03
   2  7 17  8.48490E-04  3.71659E+03
   2  7 18  5.41010E-06  3.72370E+03
   2  7 19  9.01700E-06  3.72421E+03
   2  8  8  2.32357E-03  3.43316E+03
   2  8  9  8.60538E-02  3.44211E+03
   2  8 10  5.66082E-03  3.79392E+03
   2  8 11  2.68696E-04  3.83309E+03
   2  8 12  2.09277E-03  3.84093E+03
   2  8 13  6.02332E-04  3.90324E+03
   2  8 14  8.37108E-03  3.90434E+03
   2  8 17  6.41101E-04  3.92334E+03
   2  8 18  8.11519E-06  3.93045E+03
   2  8 19  5.86102E-05  3.93096E+03
   2  9  9  2.42588E-02  3.45106E+03
   2  9 10  8.10565E-03  3.80287E+03
   2  9 11  2.58878E-03  3.84204E+03
   2  9 12  1.50765E-03  3.84988E+03
   2  9 13  8.33566E-03  3.91219E+03
   2  9 14  4.91885E-03  3.91329E+03
   2  9 17  9.19759E-04  3.93229E+03
   2  9 18  7.39423E-05  3.93940E+03
   2  9 19  4.23813E-05  3.93991E+03
   2 10 10  4.12989E-04  4.15468E+03
   2 10 11  7.35789E-04  4.19385E+03
   2 10 12  1.36160E-03  4.20169E+03
   2 10 13  7.37569E-04  4.26400E+03
   2 10 14  1.04500E-03  4.26510E+03
   2 10 17  9.73849E-05  4.28410E+03
   2 10 18  2.07390E-05  4.29121E+03
   2 10 19  3.78699E-05  4.29172E+03
   2 11 11  1.80343E-06  4.23302E+03
   2 11 12  3.51667E-05  4.24086E+03
   2 11 13  3.06586E-05  4.30317E+03
   2 11 14  2.35354E-04  4.30427E+03
   2 11 17  8.38586E-05  4.32327E+03
   2 11 19  9.01717E-07  4.33089E+03
   2 12 12  2.52481E-05  4.24870E+03
   2 12 13  1.74030E-04  4.31101E+03
   2 12 14  1.28940E-04  4.31211E+03
   2 12 17  1.55090E-04  4.33111E+03
   2 12 18  9.01702E-07  4.33822E+03
   2 12 19  1.80340E-06  4.33873E+03
   2 13 13  3.69689E-05  4.37332E+03
   2 13 14  8.59350E-04  4.37442E+03
   2 13 17  8.38590E-05  4.39342E+03
   2 13 18  9.01721E-07  4.40053E+03
   2 13 19  4.50851E-06  4.40104E+03
   2 14 14  2.61493E-04  4.37552E+03
   2 14 17  1.18131E-04  4.39452E+03
   2 14 18  6.31178E-06  4.40163E+03
   2 14 19  3.60675E-06  4.40214E+03
   2 17 17  5.41032E-06  4.41352E+03
   2 17 18  2.70521E-06  4.42063E+03
   2 17 19  4.50858E-06  4.42114E+03
   3  4  0  2.94830E-08  2.34000E+02
   3  5  0  3.67630E-03  3.27237E+03
   3  7  0  4.74740E-05  3.44210E+03
   3  8  0  5.73491E-02  3.66284E+03
   3 10  0  4.45350E-04  4.01799E+03
   3 12  0  4.17020E-06  4.06500E+03
   3 13  0  6.92291E-03  4.12731E+03
   3 17  0  3.80590E-05  4.14741E+03
   3 19  0  8.97371E-08  4.15503E+03
   3  4 10  1.27083E-02  9.11900E+01
   3  4 11  5.11173E-02  1.30360E+02
   3  4 12  1.82256E-02  1.38200E+02
   3  4 13  6.12161E-02  2.00510E+02
   3  4 14  2.29250E-02  2.01610E+02
   3  4 17  1.38132E-03  2.20610E+02
   3  4 18  1.41051E-03  2.27720E+02
   3  4 19  5.05994E-04  2.28230E+02
   3  5  5  1.12159E-03  2.42270E+03
   3  5  6  2.62986E-02  2.53839E+03
   3  5  7  2.55307E-03  2.58143E+03
   3  5  8  1.80393E-03  2.78818E+03
   3  5  9  3.78205E-03  2.79713E+03
   3  5 10  3.66216E-04  3.14894E+03
   3  5 11  3.39088E-03  3.18811E+03
   3  5 12  4.15251E-04  3.19595E+03
   3  5 13  1.74234E-04  3.25826E+03
   3  5 14  3.16130E-04  3.25936E+03
   3  5 17  4.27750E-05  3.27836E+03
   3  5 18  9.28582E-05  3.28547E+03
   3  5 19  1.14769E-05  3.28598E+03
   3  6  6  2.56982E-02  2.65408E+03
   3  6  7  8.17441E-02  2.69712E+03
   3  6  8  4.41718E-02  2.90387E+03
   3  6  9  7.64574E-02  2.91282E+03
   3  6 10  5.46400E-03  3.26463E+03
   3  6 11  8.17871E-03  3.30380E+03
   3  6 12  1.46599E-02  3.31164E+03
   3  6 13  5.74768E-03  3.37395E+03
   3  6 14  9.91433E-03  3.37505E+03
   3  6 17  6.62542E-04  3.39405E+03
   3  6 18  2.30583E-04  3.40116E+03
   3  6 19  4.11080E-04  3.40167E+03
   3  7  7  2.16701E-03  2.74016E+03
   3  7  8  5.36843E-02  2.94691E+03
   3  7  9  7.23227E-03  2.95586E+03
   3  7 10  4.56970E-04  3.30767E+03
   3  7 11  1.09190E-02  3.34684E+03
   3  7 12  6.58353E-04  3.35468E+03
   3  7 13  6.07007E-03  3.41699E+03
   3  7 14  7.61643E-04  3.41809E+03
   3  7 17  5.42552E-05  3.43709E+03
   3  7 18  3.00483E-04  3.44420E+03
   3  7 19  1.77364E-05  3.44471E+03
   3  8  8  4.87959E-02  3.15366E+03
   3  8  9  2.10732E-01  3.16261E+03
   3  8 10  3.80817E-04  3.51442E+03
   3  8 11  5.91980E-03  3.55359E+03
   3  8 12  9.13752E-03  3.56143E+03
   3  8 13  1.10010E-02  3.62374E+03
   3  8 14  2.52089E-02  3.62484E+03
   3  8 17  4.59081E-05  3.64384E+03
   3  8 18  1.63806E-04  3.65095E+03
   3  8 19  2.54569E-04  3.65146E+03
   3  9  9  1.00230E-02  3.17156E+03
   3  9 10  6.65630E-04  3.52337E+03
   3  9 11  9.17927E-03  3.56254E+03
   3  9 12  1.12789E-03  3.57038E+03
   3  9 13  2.04462E-02  3.63269E+03
   3  9 14  2.19520E-03  3.63379E+03
   3  9 17  7.82499E-05  3.65279E+03
   3  9 18  2.48308E-04  3.65990E+03
   3  9 19  3.13001E-05  3.66041E+03
   3 10 10  3.51015E-05  3.87518E+03
   3 10 11  8.49964E-04  3.91435E+03
   3 10 12  9.02623E-05  3.92219E+03
   3 10 13  4.26225E-05  3.98450E+03
   3 10 14  6.89499E-05  3.98560E+03
   3 10 17  8.77525E-06  4.00460E+03
   3 10 18  2.38187E-05  4.01171E+03
   3 10 19  2.50730E-06  4.01222E+03
   3 11 11  6.10792E-04  3.95352E+03
   3 11 12  1.91285E-03  3.96136E+03
   3 11 13  7.41099E-04  4.02367E+03
   3 11 14  1.16862E-03  4.02477E+03
   3 11 17  8.34780E-05  4.04377E+03
   3 11 18  3.46119E-05  4.05088E+03
   3 11 19  5.39560E-05  4.05139E+03
   3 12 12  4.97417E-05  3.96920E+03
   3 12 13  1.03418E-03  4.03151E+03
   3 12 14  1.21255E-04  4.03261E+03
   3 12 17  9.32651E-06  4.05161E+03
   3 12 18  5.38892E-05  4.05872E+03
   3 12 19  3.10891E-06  4.05923E+03
   3 13 13  6.14515E-04  4.09382E+03
   3 13 14  2.51234E-03  4.09492E+03
   3 13 17  4.17316E-06  4.11392E+03
   3 13 18  2.08668E-05  4.12103E+03
   3 13 19  2.92129E-05  4.12154E+03
   3 14 14  1.31249E-04  4.09602E+03
   3 14 17  6.78903E-06  4.11502E+03
   3 14 18  3.50772E-05  4.12213E+03
   3 14 19  3.39462E-06  4.12264E+03
   3 17 18  2.08670E-06  4.14113E+03
   3 18 19  1.04330E-06  4.14875E+03
   4  5  0  6.42092E-03  3.04501E+03
   4  6  0  3.27131E-05  3.17340E+03
   4  7  0  3.06441E-05  3.21500E+03
   4  8  0  5.76902E-03  3.43736E+03
   4  9  0  5.11512E-02  3.44401E+03
   4 10  0  4.77372E-04  3.78399E+03
   4 11  0  2.10011E-06  3.82316E+03
   4 12  0  2.00481E-06  3.83100E+03
   4 13  0  6.82392E-04  3.89331E+03
   4 14  0  6.05732E-03  3.89441E+03
   4 17  0  4.84992E-05  3.91341E+03
   4 18  0  4.78822E-08  3.92052E+03
   4 19  0  4.30161E-08  3.92103E+03
   4  5  5  1.44845E-03  2.18870E+03
   4  5  6  1.06172E-03  2.30439E+03
   4  5  7  3.05038E-02  2.34743E+03
   4  5  8  3.00469E-03  2.55418E+03
   4  5  9  3.18725E-03  2.56313E+03
   4  5 10  4.74119E-04  2.91494E+03
   4  5 11  1.65612E-04  2.95411E+03
   4  5 12  3.92003E-03  2.96195E+03
   4  5 13  2.24582E-04  3.02426E+03
   4  5 14  2.22312E-04  3.02536E+03
   4  5 17  5.55775E-05  3.04436E+03
   4  5 18  4.53692E-06  3.05147E+03
   4  5 19  1.05492E-04  3.05198E+03
   4  6  6  3.62969E-04  2.42008E+03
   4  6  7  5.06425E-02  2.46312E+03
   4  6  8  3.48551E-03  2.66987E+03
   4  6  9  3.11278E-02  2.67882E+03
   4  6 10  1.87159E-04  3.03063E+03
   4  6 11  1.12291E-04  3.06980E+03
   4  6 12  6.73617E-03  3.07764E+03
   4  6 13  4.25348E-04  3.13995E+03
   4  6 14  3.33704E-03  3.14105E+03
   4  6 17  2.26852E-05  3.16005E+03
   4  6 18  3.40273E-06  3.16716E+03
   4  6 19  1.81479E-04  3.16767E+03
   4  7  7  7.17968E-02  2.50616E+03
   4  7  8  7.25677E-02  2.71291E+03
   4  7  9  1.10410E-01  2.72186E+03
   4  7 10  6.27926E-03  3.07367E+03
   4  7 11  9.00835E-03  3.11284E+03
   4  7 12  2.24169E-02  3.12068E+03
   4  7 13  9.14083E-03  3.18299E+03
   4  7 14  1.36945E-02  3.18409E+03
   4  7 17  7.61061E-04  3.20309E+03
   4  7 18  2.57473E-04  3.21020E+03
   4  7 19  6.18178E-04  3.21071E+03
   4  8  8  1.05382E-02  2.91966E+03
   4  8  9  2.02895E-01  2.92861E+03
   4  8 10  5.73952E-04  3.28042E+03
   4  8 11  6.15885E-04  3.31959E+03
   4  8 12  9.06045E-03  3.32743E+03
   4  8 13  2.38429E-03  3.38974E+03
   4  8 14  1.99236E-02  3.39084E+03
   4  8 17  6.91922E-05  3.40984E+03
   4  8 18  1.81479E-05  3.41695E+03
   4  8 19  2.41599E-04  3.41746E+03
   4  9  9  1.37946E-01  2.93756E+03
   4  9 10  6.47647E-04  3.28937E+03
   4  9 11  5.18590E-03  3.32854E+03
   4  9 12  1.53213E-02  3.33638E+03
   4  9 13  2.32100E-02  3.39869E+03
   4  9 14  2.98978E-02  3.39979E+03
   4  9 17  7.82623E-05  3.41879E+03
   4  9 18  1.47454E-04  3.42590E+03
   4  9 19  4.16268E-04  3.42641E+03
   4 10 10  4.72189E-05  3.64118E+03
   4 10 11  3.61092E-05  3.68035E+03
   4 10 12  9.90212E-04  3.68819E+03
   4 10 13  5.55509E-05  3.75050E+03
   4 10 14  5.83274E-05  3.75160E+03
   4 10 17  1.11107E-05  3.77060E+03
   4 10 18  1.38874E-06  3.77771E+03
   4 10 19  2.63866E-05  3.77822E+03
   4 11 11  7.76619E-06  3.71952E+03
   4 11 12  1.17046E-03  3.72736E+03
   4 11 13  7.21167E-05  3.78967E+03
   4 11 14  5.56974E-04  3.79077E+03
   4 11 17  3.32838E-06  3.80977E+03
   4 11 19  3.10658E-05  3.81739E+03
   4 12 12  1.65779E-03  3.73520E+03
   4 12 13  1.11622E-03  3.79751E+03
   4 12 14  1.83604E-03  3.79861E+03
   4 12 17  9.52348E-05  3.81761E+03
   4 12 18  3.32212E-05  3.82472E+03
   4 12 19  9.08070E-05  3.82523E+03
   4 13 13  1.31571E-04  3.85982E+03
   4 13 14  2.33557E-03  3.86092E+03
   4 13 17  5.67130E-06  3.87992E+03
   4 13 18  2.26858E-06  3.88703E+03
   4 13 19  3.06257E-05  3.88754E+03
   4 14 14  1.71774E-03  3.86202E+03
   4 14 17  5.98918E-06  3.88102E+03
   4 14 18  1.67698E-05  3.88813E+03
   4 14 19  5.39049E-05  3.88864E+03
   4 17 19  2.26851E-06  3.90764E+03
   4 19 19  1.13420E-06  3.91526E+03
   5  6  0  1.16905E-05  1.15690E+02
   5  7  0  6.27128E-05  1.58730E+02
   5 11  0  1.48722E-04  7.65410E+02
   5 12  0  2.10154E-04  7.73250E+02
   5 18  0  3.70385E-06  8.62770E+02
   5 19  0  5.01278E-06  8.63280E+02
   5  6 13  6.13161E-02  8.22000E+01
   5  6 14  8.30191E-02  8.33000E+01
   5  6 17  5.14062E-03  1.02300E+02
   5  6 18  9.50090E-04  1.09410E+02
   5  6 19  1.62900E-03  1.09920E+02
   5  7 11  8.20918E-02  5.50900E+01
   5  7 12  1.28365E-01  6.29300E+01
   5  7 13  5.21376E-02  1.25240E+02
   5  7 14  7.66770E-02  1.26340E+02
   5  7 17  7.57441E-03  1.45340E+02
   5  7 18  1.49152E-03  1.52450E+02
   5  7 19  2.26481E-03  1.52960E+02
   5  8 10  2.95988E-02  2.22670E+02
   5  8 11  5.95534E-03  2.61840E+02
   5  8 12  4.54959E-03  2.69680E+02
   5  8 13  6.24623E-03  3.31990E+02
   5  8 14  7.44815E-03  3.33090E+02
   5  8 17  2.21050E-03  3.52090E+02
   5  8 18  9.86479E-05  3.59200E+02
   5  8 19  6.94883E-05  3.59710E+02
   5  9 10  4.34308E-02  2.31620E+02
   5  9 11  1.59529E-03  2.70790E+02
   5  9 12  1.17593E-02  2.78630E+02
   5  9 13  7.85453E-03  3.40940E+02
   5  9 14  1.25642E-02  3.42040E+02
   5  9 17  3.23460E-03  3.61040E+02
   5  9 18  2.44671E-05  3.68150E+02
   5  9 19  1.82033E-04  3.68660E+02
   5 10 10  1.04626E-02  5.83430E+02
   5 10 11  1.62981E-02  6.22600E+02
   5 10 12  3.01252E-02  6.30440E+02
   5 10 13  2.57342E-02  6.92750E+02
   5 10 14  3.74092E-02  6.93850E+02
   5 10 17  1.82982E-03  7.12850E+02
   5 10 18  3.20335E-04  7.19960E+02
   5 10 19  5.57686E-04  7.20470E+02
   5 11 11  9.71036E-04  6.61770E+02
   5 11 12  2.33896E-03  6.69610E+02
   5 11 13  1.24154E-03  7.31920E+02
   5 11 14  3.89835E-04  7.33020E+02
   5 11 17  1.20967E-03  7.52020E+02
   5 11 18  3.30769E-05  7.59130E+02
   5 11 19  3.54398E-05  7.59640E+02
   5 12 12  2.97432E-03  6.77450E+02
   5 12 13  1.00567E-03  7.39760E+02
   5 12 14  2.96872E-03  7.40860E+02
   5 12 17  2.13622E-03  7.59860E+02
   5 12 18  3.82475E-05  7.66970E+02
   5 12 19  9.56199E-05  7.67480E+02
   5 13 13  3.00331E-04  8.02070E+02
   5 13 14  8.44683E-04  8.03170E+02
   5 13 17  1.76330E-03  8.22170E+02
   5 13 18  1.87707E-05  8.29280E+02
   5 13 19  1.43538E-05  8.29790E+02
   5 14 14  6.48155E-04  8.04270E+02
   5 14 17  2.56269E-03  8.23270E+02
   5 14 18  5.52050E-06  8.30380E+02
   5 14 19  4.41640E-05  8.30890E+02
   5 17 17  7.28700E-05  8.42270E+02
   5 17 18  2.20821E-05  8.49380E+02
   5 17 19  3.86449E-05  8.49890E+02
   5 18 19  1.10408E-06  8.57000E+02
   6  8  0  4.24515E-04  2.62100E+02
   6 10  0  2.43739E-04  6.10550E+02
   6 13  0  6.94411E-04  7.19870E+02
   6 17  0  2.77859E-05  7.39970E+02
   6  8 10  1.36376E-01  1.06980E+02
   6  8 11  1.38431E-01  1.46150E+02
   6  8 12  2.07705E-01  1.53990E+02
   6  8 13  4.81460E-02  2.16300E+02
   6  8 14  4.86115E-02  2.17400E+02
   6  8 17  1.41746E-02  2.36400E+02
   6  8 18  2.42189E-03  2.43510E+02
   6  8 19  3.69940E-03  2.44020E+02
   6  9 10  2.34475E-02  1.15930E+02
   6  9 11  1.73738E-01  1.55100E+02
   6  9 12  1.83723E-02  1.62940E+02
   6  9 13  4.29404E-03  2.25250E+02
   6  9 14  6.50409E-03  2.26350E+02
   6  9 17  1.70412E-03  2.45350E+02
   6  9 18  2.64511E-03  2.52460E+02
   6  9 19  3.03372E-04  2.52970E+02
   6 10 10  7.11816E-04  4.67740E+02
   6 10 11  1.02782E-02  5.06910E+02
   6 10 12  1.67073E-03  5.14750E+02
   6 10 13  3.64278E-04  5.77060E+02
   6 10 14  9.38615E-04  5.78160E+02
   6 10 17  1.18633E-04  5.97160E+02
   6 10 18  1.50041E-04  6.04270E+02
   6 10 19  2.86115E-05  6.04780E+02
   6 11 11  6.87665E-03  5.46080E+02
   6 11 12  2.15649E-02  5.53920E+02
   6 11 13  1.60037E-02  6.16230E+02
   6 11 14  2.66134E-02  6.17330E+02
   6 11 17  1.02687E-03  6.36330E+02
   6 11 18  2.37549E-04  6.43440E+02
   6 11 19  3.96367E-04  6.43950E+02
   6 12 12  6.26634E-04  5.61760E+02
   6 12 13  1.87251E-03  6.24070E+02
   6 12 14  1.29248E-03  6.25170E+02
   6 12 17  1.34062E-04  6.44170E+02
   6 12 18  3.53240E-04  6.51280E+02
   6 12 19  2.03361E-05  6.51790E+02
   6 13 13  5.77265E-04  6.86380E+02
   6 13 14  1.28315E-03  6.87480E+02
   6 13 17  3.66382E-05  7.06480E+02
   6 13 18  2.57971E-04  7.13590E+02
   6 13 19  2.91612E-05  7.14100E+02
   6 14 14  1.99105E-04  6.88580E+02
   6 14 17  4.91846E-05  7.07580E+02
   6 14 18  2.73820E-04  7.14690E+02
   6 14 19  1.22964E-05  7.15200E+02
   6 17 17  4.48925E-06  7.26580E+02
   6 17 18  1.41106E-05  7.33690E+02
   6 17 19  1.92402E-06  7.34200E+02
   6 18 19  5.77236E-06  7.41310E+02
   7  8  0  2.59149E-05  2.06750E+02
   7  9  0  2.70259E-04  2.28700E+02
   7 10  0  2.98824E-04  5.67510E+02
   7 13  0  8.59388E-05  6.76830E+02
   7 14  0  7.09477E-04  6.77930E+02
   7 17  0  3.37980E-05  6.96930E+02
   7  8 10  2.78786E-02  6.39400E+01
   7  8 11  1.95508E-02  1.03110E+02
   7  8 12  1.22311E-01  1.10950E+02
   7  8 13  1.17453E-02  1.73260E+02
   7  8 14  8.15886E-03  1.74360E+02
   7  8 17  2.35650E-03  1.93360E+02
   7  8 18  3.58977E-04  2.00470E+02
   7  8 19  1.82980E-03  2.00980E+02
   7  9 10  1.28474E-01  7.28900E+01
   7  9 11  1.31043E-01  1.12060E+02
   7  9 12  2.68675E-01  1.19900E+02
   7  9 13  4.27775E-02  1.82210E+02
   7  9 14  7.56734E-02  1.83310E+02
   7  9 17  1.32445E-02  2.02310E+02
   7  9 18  2.42905E-03  2.09420E+02
   7  9 19  4.41809E-03  2.09930E+02
   7 10 10  8.73703E-04  4.24700E+02
   7 10 11  1.27474E-03  4.63870E+02
   7 10 12  1.84819E-02  4.71710E+02
   7 10 13  9.82751E-04  5.34020E+02
   7 10 14  1.09752E-03  5.35120E+02
   7 10 17  1.46562E-04  5.54120E+02
   7 10 18  2.15874E-05  5.61230E+02
   7 10 19  2.59052E-04  5.61740E+02
   7 11 11  2.03704E-04  5.03040E+02
   7 11 12  1.89003E-02  5.10880E+02
   7 11 13  5.02292E-04  5.73190E+02
   7 11 14  2.61073E-03  5.74290E+02
   7 11 17  9.17134E-05  5.93290E+02
   7 11 18  6.39847E-06  6.00400E+02
   7 11 19  2.66620E-04  6.00910E+02
   7 12 12  2.42025E-02  5.18720E+02
   7 12 13  2.62926E-02  5.81030E+02
   7 12 14  3.57836E-02  5.82130E+02
   7 12 17  1.51593E-03  6.01130E+02
   7 12 18  3.19341E-04  6.08240E+02
   7 12 19  7.85347E-04  6.08750E+02
   7 13 13  1.44768E-04  6.43340E+02
   7 13 14  1.30420E-03  6.44440E+02
   7 13 17  4.21386E-05  6.63440E+02
   7 13 18  4.75728E-06  6.70550E+02
   7 13 19  2.71844E-04  6.71060E+02
   7 14 14  8.31814E-04  6.45540E+02
   7 14 17  4.73332E-05  6.64540E+02
   7 14 18  2.27207E-05  6.71650E+02
   7 14 19  3.42066E-04  6.72160E+02
   7 17 17  3.37578E-06  6.83540E+02
   7 17 18  1.12526E-06  6.90650E+02
   7 17 19  1.29410E-05  6.91160E+02
   7 18 19  2.81325E-06  6.98270E+02
   7 19 19  1.12534E-06  6.98780E+02
   8 11  0  9.37775E-04  3.99930E+02
   8 12  0  1.54161E-04  4.07770E+02
   8 18  0  2.06751E-05  4.97290E+02
   8 19  0  3.19592E-06  4.97800E+02
   8 10 10  3.47264E-04  2.17950E+02
   8 10 11  9.28768E-03  2.57120E+02
   8 10 12  8.58683E-03  2.64960E+02
   8 10 13  1.29751E-01  3.27270E+02
   8 10 14  2.04313E-02  3.28370E+02
   8 10 17  5.05113E-05  3.47370E+02
   8 10 18  1.45219E-04  3.54480E+02
   8 10 19  1.01023E-04  3.54990E+02
   8 11 11  1.60367E-03  2.96290E+02
   8 11 12  2.07600E-02  3.04130E+02
   8 11 13  9.81926E-02  3.66440E+02
   8 11 14  8.70681E-03  3.67540E+02
   8 11 17  3.91459E-04  3.86540E+02
   8 11 18  6.31385E-05  3.93650E+02
   8 11 19  3.03057E-04  3.94160E+02
   8 12 12  8.46059E-03  3.11970E+02
   8 12 13  2.17727E-01  3.74280E+02
   8 12 14  8.80792E-03  3.75380E+02
   8 12 17  4.79861E-04  3.94380E+02
   8 12 18  3.15685E-04  4.01490E+02
   8 12 19  2.39931E-04  4.02000E+02
   8 13 13  1.42616E-01  4.36590E+02
   8 13 14  2.93077E-01  4.37690E+02
   8 13 17  1.18444E-02  4.56690E+02
   8 13 18  1.91321E-03  4.63800E+02
   8 13 19  3.92106E-03  4.64310E+02
   8 14 14  4.91234E-03  4.38790E+02
   8 14 17  1.05443E-03  4.57790E+02
   8 14 18  1.19963E-04  4.64900E+02
   8 14 19  1.32594E-04  4.65410E+02
   8 17 18  6.31403E-06  4.83900E+02
   8 17 19  6.31403E-06  4.84410E+02
   8 18 19  6.31413E-06  4.91520E+02
   9 12  0  9.93907E-04  3.98820E+02
   9 19  0  2.05909E-05  4.88850E+02
   9 10 10  5.74069E-04  2.09000E+02
   9 10 11  5.06674E-03  2.48170E+02
   9 10 12  1.44884E-02  2.56010E+02
   9 10 13  1.49561E-02  3.18320E+02
   9 10 14  1.36880E-01  3.19420E+02
   9 10 17  7.48767E-05  3.38420E+02
   9 10 18  4.99189E-05  3.45530E+02
   9 10 19  1.99678E-04  3.46040E+02
   9 11 11  6.23959E-06  2.87340E+02
   9 11 12  2.07084E-02  2.95180E+02
   9 11 13  1.77825E-03  3.57490E+02
   9 11 14  1.20555E-01  3.58590E+02
   9 11 17  2.62055E-04  3.77590E+02
   9 11 19  2.99488E-04  3.85210E+02
   9 12 12  1.44694E-02  3.03020E+02
   9 12 13  1.11435E-02  3.65330E+02
   9 12 14  1.99687E-01  3.66430E+02
   9 12 17  6.98848E-04  3.85430E+02
   9 12 18  2.99500E-04  3.92540E+02
   9 12 19  4.30533E-04  3.93050E+02
   9 13 13  2.02159E-03  4.27640E+02
   9 13 14  2.02059E-01  4.28740E+02
   9 13 17  7.67449E-04  4.47740E+02
   9 13 18  3.11972E-05  4.54850E+02
