 PENELOPE (v. 2014)  Material data file ...............
 Material:                 W_Sn_0.45_0.35                                
 Mass density = 3.54883572E+00 g/cm**3
 Number of elements in the molecule =  4
   atomic number =  1,  atoms/molecule = 1.00000000E+00
   atomic number =  6,  atoms/molecule = 4.99982168E-01
   atomic number = 74,  atoms/molecule = 8.58290350E-02
   atomic number = 50,  atoms/molecule = 1.03387037E-01
 Mean excitation energy = 3.29594471E+02 eV
 Number of oscillators = 32 (E/P inelastic model)
   1  1.72171262E+00  0.00000000E+00  1.20285521E+01   0  30
   2  2.20673841E+00  1.48049706E+01  3.04702548E+01   0  30
   3  2.57879300E+00  3.40181094E+01  6.80348868E+01   0  30
   4  1.71658070E-01  5.10000000E+01  1.02750125E+02  74  30
   5  1.71658070E-01  8.00000000E+01  1.61133087E+02  74  30
   6  4.13548149E-01  9.30000000E+01  1.87344364E+02  50  12
   7  2.06774074E-01  1.02000000E+02  2.05434830E+02  50  11
   8  2.06774074E-01  1.41000000E+02  2.83964862E+02  50  10
   9  5.14974210E-01  2.48000000E+02  4.99448934E+02  74  14
  10  3.43316140E-01  2.61000000E+02  5.25617624E+02  74  13
  11  9.99964336E-01  2.88000000E+02  5.80019967E+02   6   1
  12  3.43316140E-01  4.28000000E+02  8.61913503E+02  74  12
  13  6.20322223E-01  4.89000000E+02  9.84761213E+02  50   9
  14  1.71658070E-01  4.95000000E+02  9.96831135E+02  74  11
  15  4.13548149E-01  4.97000000E+02  1.00086547E+03  50   8
  16  1.71658070E-01  5.99000000E+02  1.20626451E+03  74  10
  17  4.13548149E-01  7.19000000E+02  1.44792339E+03  50   7
  18  2.06774074E-01  7.61000000E+02  1.53249837E+03  50   6
  19  2.06774074E-01  8.88000000E+02  1.78824923E+03  50   5
  20  5.14974210E-01  1.81100000E+03  3.64697860E+03  74   9
  21  3.43316140E-01  1.87400000E+03  3.77384600E+03  74   8
  22  3.43316140E-01  2.28300000E+03  4.59748586E+03  74   7
  23  1.71658070E-01  2.57700000E+03  5.18953911E+03  74   6
  24  1.71658070E-01  2.82300000E+03  5.68493150E+03  74   5
  25  4.13548149E-01  3.93300000E+03  7.92023960E+03  50   4
  26  2.06774074E-01  4.16000000E+03  8.37736928E+03  50   3
  27  2.06774074E-01  4.46900000E+03  8.99963051E+03  50   2
  28  3.43316140E-01  1.02090000E+04  2.05587880E+04  74   4
  29  1.71658070E-01  1.15460000E+04  2.32512256E+04  74   3
  30  1.71658070E-01  1.21030000E+04  2.43729069E+04  74   2
  31  2.06774074E-01  2.92040000E+04  5.88107386E+04  50   1
  32  1.71658070E-01  6.95290000E+04  1.40016842E+05  74   1
 Number of shells = 32 (Compton IA model)
   1  1.72171262E+00  0.00000000E+00  1.10533263E+00   0  30
   2  2.20673841E+00  1.48049706E+01  8.51739287E-01   0  30
   3  2.57879300E+00  3.40181094E+01  1.56679370E-01   0  30
   4  1.71658070E-01  5.10000000E+01  2.86868000E-01  74  30
   5  1.71658070E-01  8.00000000E+01  4.26047000E-01  74  30
   6  4.13548149E-01  9.30000000E+01  2.16021000E-01  50  12
   7  2.06774074E-01  1.02000000E+02  2.09348000E-01  50  11
   8  2.06774074E-01  1.41000000E+02  3.22001000E-01  50  10
   9  5.14974210E-01  2.48000000E+02  8.82944000E-02  74  14
  10  3.43316140E-01  2.61000000E+02  8.63992000E-02  74  13
  11  9.99964336E-01  2.88000000E+02  1.53080000E-01   6   1
  12  3.43316140E-01  4.28000000E+02  1.12642000E-01  74  12
  13  6.20322223E-01  4.89000000E+02  5.68648000E-02  50   9
  14  1.71658070E-01  4.95000000E+02  1.05521000E-01  74  11
  15  4.13548149E-01  4.97000000E+02  5.62946000E-02  50   8
  16  1.71658070E-01  5.99000000E+02  1.67046000E-01  74  10
  17  4.13548149E-01  7.19000000E+02  8.38634000E-02  50   7
  18  2.06774074E-01  7.61000000E+02  8.14036000E-02  50   6
  19  2.06774074E-01  8.88000000E+02  1.36927000E-01  50   5
  20  5.14974210E-01  1.81100000E+03  3.30808000E-02  74   9
  21  3.43316140E-01  1.87400000E+03  3.23731000E-02  74   8
  22  3.43316140E-01  2.28300000E+03  4.99025000E-02  74   7
  23  1.71658070E-01  2.57700000E+03  4.67288000E-02  74   6
  24  1.71658070E-01  2.82300000E+03  7.95533000E-02  74   5
  25  4.13548149E-01  3.93300000E+03  3.04471000E-02  50   4
  26  2.06774074E-01  4.16000000E+03  2.91768000E-02  50   3
  27  2.06774074E-01  4.46900000E+03  5.86085000E-02  50   2
  28  3.43316140E-01  1.02090000E+04  1.95294000E-02  74   4
  29  1.71658070E-01  1.15460000E+04  1.76536000E-02  74   3
  30  1.71658070E-01  1.21030000E+04  3.60624000E-02  74   2
  31  2.06774074E-01  2.92040000E+04  1.63105000E-02  50   1
  32  1.71658070E-01  6.95290000E+04  1.01492000E-02  74   1
 *** RELAX:  Z =  1,  no. of shells =  1,  no. of transitions =    0
   1 1s1/2 1  1.36000E+01  0.00000E+00  8.48807E-01
 *** RELAX:  Z =  6,  no. of shells =  3,  no. of transitions =    8
   1 1s1/2 2  2.88000E+02  6.14394E-02  1.53080E-01
   2 2s1/2 2  1.65900E+01  0.00000E+00  8.03154E-01
   3 2p1/2 2  1.12600E+01  0.00000E+00  4.88373E-01
   1  3  0  5.61488E-04  2.77000E+02
   1  4  0  1.12060E-03  2.77000E+02
   1  2  2  4.13609E-01  2.55890E+02
   1  2  3  1.36190E-01  2.64460E+02
   1  2  4  2.71099E-01  2.64470E+02
   1  3  3  4.20748E-03  2.73030E+02
   1  3  4  1.10012E-01  2.73040E+02
   1  4  4  6.32008E-02  2.73050E+02
 *** RELAX:  Z = 74,  no. of shells = 21,  no. of transitions = 1530
   1 1s1/2 2  6.95290E+04  4.01000E+01  1.01492E-02
   2 2s1/2 2  1.21030E+04  6.30000E+00  3.60624E-02
   3 2p1/2 2  1.15460E+04  4.82000E+00  1.76536E-02
   4 2p3/2 4  1.02090E+04  4.81000E+00  1.95294E-02
   5 3s1/2 2  2.82300E+03  1.45000E+01  7.95533E-02
   6 3p1/2 2  2.57700E+03  8.10000E+00  4.67288E-02
   7 3p3/2 4  2.28300E+03  6.40000E+00  4.99025E-02
   8 3d3/2 4  1.87400E+03  1.70000E+00  3.23731E-02
   9 3d5/2 6  1.81100E+03  1.70000E+00  3.30808E-02
  10 4s1/2 2  5.99000E+02  7.30000E+00  1.67046E-01
  11 4p1/2 2  4.95000E+02  5.80000E+00  1.05521E-01
  12 4p3/2 4  4.28000E+02  4.20000E+00  1.12642E-01
  13 4d3/2 4  2.61000E+02  4.10000E+00  8.63992E-02
  14 4d5/2 6  2.48000E+02  3.80000E+00  8.82944E-02
  17 5s1/2 2  8.00000E+01  5.82174E+00  4.26047E-01
  18 5p1/2 2  5.10000E+01  2.12143E+00  2.86868E-01
  19 5p3/2 4  4.10000E+01  8.33730E-01  3.12605E-01
  15 4f5/2 6  3.80000E+01  1.00000E-01  8.07888E-02
  16 4f7/2 8  3.60000E+01  6.00000E-02  8.20058E-02
  20 5d3/2 4  8.66700E+00  0.00000E+00  3.50851E-01
  24 6s1/2 2  8.66700E+00  0.00000E+00  1.53027E+00
   1  3  0  2.76548E-01  5.79818E+04
   1  4  0  4.80107E-01  5.93188E+04
   1  6  0  5.16247E-02  6.69522E+04
   1  7  0  9.97644E-02  6.72450E+04
   1  8  0  1.11609E-03  6.76523E+04
   1  9  0  1.40749E-03  6.77159E+04
   1 11  0  1.17459E-02  6.92004E+04
   1 12  0  2.27829E-02  6.92694E+04
   1 13  0  2.69498E-04  6.94289E+04
   1 14  0  3.38308E-04  6.94417E+04
   1 18  0  2.66968E-03  6.96330E+04
   1 19  0  5.46957E-03  6.96434E+04
   1 20  0  7.67775E-06  6.96807E+04
   1 21  0  9.23544E-06  6.96816E+04
   1  2  2  4.60333E-03  4.55350E+04
   1  2  3  6.65977E-03  4.60390E+04
   1  2  4  4.66106E-03  4.74060E+04
   1  2  5  1.81724E-03  5.48155E+04
   1  2  6  1.41581E-03  5.50442E+04
   1  2  7  1.05022E-03  5.53408E+04
   1  2  8  8.45088E-05  5.57309E+04
   1  2  9  7.05709E-05  5.57958E+04
   1  2 10  4.39208E-04  5.70273E+04
   1  2 11  3.31780E-04  5.71234E+04
   1  2 12  2.43789E-04  5.71924E+04
   1  2 13  2.02030E-05  5.73519E+04
   1  2 14  1.66463E-05  5.73647E+04
   1  2 15  7.11379E-08  5.75664E+04
   1  2 16  7.11379E-08  5.75688E+04
   1  2 17  7.75417E-05  5.75269E+04
   1  2 18  4.93689E-05  5.75560E+04
   1  2 19  3.45720E-05  5.75663E+04
   1  2 20  1.20927E-06  5.76037E+04
   1  2 24  6.90018E-06  5.76043E+04
   1  3  3  4.63671E-04  4.65430E+04
   1  3  4  8.71548E-03  4.79100E+04
   1  3  5  1.12435E-03  5.53195E+04
   1  3  6  1.73295E-04  5.55482E+04
   1  3  7  1.63336E-03  5.58448E+04
   1  3  8  8.97064E-05  5.62349E+04
   1  3  9  2.55679E-04  5.62998E+04
   1  3 10  2.62302E-04  5.75313E+04
   1  3 11  3.94829E-05  5.76274E+04
   1  3 12  3.64153E-04  5.76964E+04
   1  3 13  2.07726E-05  5.78559E+04
   1  3 14  5.91154E-05  5.78687E+04
   1  3 15  4.26824E-07  5.80704E+04
   1  3 16  7.11398E-07  5.80728E+04
   1  3 17  4.59557E-05  5.80309E+04
   1  3 18  5.83355E-06  5.80600E+04
   1  3 19  5.12904E-05  5.80703E+04
   1  3 20  1.20931E-06  5.81077E+04
   1  3 24  4.12607E-06  5.81083E+04
   1  4  4  3.91208E-03  4.92770E+04
   1  4  5  7.28498E-04  5.66865E+04
   1  4  6  1.52289E-03  5.69152E+04
   1  4  7  1.51440E-03  5.72118E+04
   1  4  8  2.90167E-04  5.76019E+04
   1  4  9  2.49052E-04  5.76668E+04
   1  4 10  1.66967E-04  5.88983E+04
   1  4 11  3.42448E-04  5.89944E+04
   1  4 12  3.40544E-04  5.90634E+04
   1  4 13  6.77241E-05  5.92229E+04
   1  4 14  5.77622E-05  5.92357E+04
   1  4 15  8.53682E-07  5.94374E+04
   1  4 16  9.24775E-07  5.94398E+04
   1  4 17  2.91651E-05  5.93979E+04
   1  4 18  5.05096E-05  5.94270E+04
   1  4 19  4.80183E-05  5.94373E+04
   1  4 20  3.98373E-06  5.94747E+04
   1  4 24  2.56104E-06  5.94753E+04
   1  5  5  1.76494E-04  6.40960E+04
   1  5  6  2.40085E-04  6.43247E+04
   1  5  7  1.65748E-04  6.46213E+04
   1  5  8  1.29464E-05  6.50114E+04
   1  5  9  1.01724E-05  6.50763E+04
   1  5 10  8.50076E-05  6.63078E+04
   1  5 11  5.63414E-05  6.64039E+04
   1  5 12  3.85557E-05  6.64729E+04
   1  5 13  3.05897E-06  6.66324E+04
   1  5 14  2.41866E-06  6.66452E+04
   1  5 17  1.50098E-05  6.68074E+04
   1  5 18  8.39422E-06  6.68365E+04
   1  5 19  5.47775E-06  6.68469E+04
   1  5 20  2.13413E-07  6.68842E+04
   1  5 24  1.35165E-06  6.68848E+04
   1  6  6  1.57213E-05  6.45534E+04
   1  6  7  2.92645E-04  6.48500E+04
   1  6  8  1.31604E-05  6.52401E+04
   1  6  9  3.40045E-05  6.53050E+04
   1  6 10  5.60552E-05  6.65365E+04
   1  6 11  7.11388E-06  6.66326E+04
   1  6 12  6.55883E-05  6.67016E+04
   1  6 13  3.05899E-06  6.68611E+04
   1  6 14  7.96747E-06  6.68739E+04
   1  6 15  7.11388E-08  6.70756E+04
   1  6 16  7.11388E-08  6.70779E+04
   1  6 17  9.81718E-06  6.70361E+04
   1  6 18  1.06712E-06  6.70652E+04
   1  6 19  9.24779E-06  6.70756E+04
   1  6 20  2.13415E-07  6.71129E+04
   1  6 24  8.53686E-07  6.71135E+04
   1  7  7  1.47827E-04  6.51466E+04
   1  7  8  4.47471E-05  6.55367E+04
   1  7  9  3.72048E-05  6.56016E+04
   1  7 10  3.80594E-05  6.68331E+04
   1  7 11  6.61601E-05  6.69292E+04
   1  7 12  6.65849E-05  6.69982E+04
   1  7 13  1.05289E-05  6.71578E+04
   1  7 14  8.67888E-06  6.71705E+04
   1  7 15  1.42279E-07  6.73722E+04
   1  7 16  1.42279E-07  6.73746E+04
   1  7 17  6.61601E-06  6.73327E+04
   1  7 18  9.74611E-06  6.73618E+04
   1  7 19  9.39034E-06  6.73722E+04
   1  7 20  6.40241E-07  6.74095E+04
   1  7 24  5.69137E-07  6.74101E+04
   1  8  8  7.11371E-08  6.59268E+04
   1  8  9  5.40652E-06  6.59917E+04
   1  8 10  2.98758E-06  6.72232E+04
   1  8 11  2.84542E-06  6.73193E+04
   1  8 12  9.53230E-06  6.73883E+04
   1  8 13  7.11371E-08  6.75478E+04
   1  8 14  1.20926E-06  6.75606E+04
   1  8 17  4.97931E-07  6.77228E+04
   1  8 18  4.26808E-07  6.77519E+04
   1  8 19  1.35163E-06  6.77623E+04
   1  8 24  7.11371E-08  6.78002E+04
   1  9  9  1.28052E-06  6.60566E+04
   1  9 10  2.27639E-06  6.72881E+04
   1  9 11  7.18485E-06  6.73842E+04
   1  9 12  7.89637E-06  6.74532E+04
   1  9 13  1.20928E-06  6.76128E+04
   1  9 14  5.69134E-07  6.76255E+04
   1  9 17  4.26815E-07  6.77877E+04
   1  9 18  1.06711E-06  6.78168E+04
   1  9 19  1.06711E-06  6.78272E+04
   1  9 20  7.11382E-08  6.78645E+04
   1  9 24  7.11382E-08  6.78651E+04
   1 10 10  1.01710E-05  6.85196E+04
   1 10 11  1.30662E-05  6.86157E+04
   1 10 12  8.82845E-06  6.86847E+04
   1 10 13  7.06295E-07  6.88443E+04
   1 10 14  5.65064E-07  6.88570E+04
   1 10 17  3.60199E-06  6.90192E+04
   1 10 18  1.97761E-06  6.90483E+04
   1 10 19  1.27136E-06  6.90587E+04
   1 10 20  7.06295E-08  6.90960E+04
   1 10 24  3.53137E-07  6.90966E+04
   1 11 11  7.82522E-07  6.87118E+04
   1 11 12  1.48675E-05  6.87808E+04
   1 11 13  6.40237E-07  6.89403E+04
   1 11 14  1.70731E-06  6.89531E+04
   1 11 17  2.27638E-06  6.91153E+04
   1 11 18  2.13412E-07  6.91444E+04
   1 11 19  2.06298E-06  6.91547E+04
   1 11 20  7.11381E-08  6.91921E+04
   1 11 24  2.13412E-07  6.91927E+04
   1 12 12  7.14926E-06  6.88498E+04
   1 12 13  2.17877E-06  6.90093E+04
   1 12 14  1.77027E-06  6.90220E+04
   1 12 17  1.49794E-06  6.91842E+04
   1 12 18  2.11069E-06  6.92134E+04
   1 12 19  2.04261E-06  6.92237E+04
   1 12 20  1.36177E-07  6.92611E+04
   1 12 24  1.36177E-07  6.92617E+04
   1 13 14  3.07021E-07  6.91816E+04
   1 13 17  1.53515E-07  6.93438E+04
   1 13 18  7.67570E-08  6.93729E+04
   1 13 19  3.07021E-07  6.93833E+04
   1 14 14  7.57283E-08  6.91943E+04
   1 14 17  7.57283E-08  6.93565E+04
   1 14 18  2.27183E-07  6.93856E+04
   1 14 19  3.02906E-07  6.93960E+04
   1 17 17  3.15659E-07  6.95187E+04
   1 17 18  3.94571E-07  6.95478E+04
   1 17 19  2.36747E-07  6.95582E+04
   1 17 24  7.89165E-08  6.95962E+04
   1 18 19  3.03728E-07  6.95873E+04
   1 19 19  1.21399E-07  6.95977E+04
   2  3  0  1.12540E-05  5.04000E+02
   2  4  0  1.35880E-03  1.87100E+03
   2  6  0  2.26771E-02  9.52523E+03
   2  7  0  2.83871E-02  9.81891E+03
   2  8  0  6.58122E-04  1.02283E+04
   2  9  0  9.84863E-04  1.02911E+04
   2 11  0  5.56691E-03  1.15884E+04
   2 12  0  7.38562E-03  1.16574E+04
   2 13  0  9.30572E-05  1.18170E+04
   2 14  0  1.45270E-04  1.18297E+04
   2 18  0  8.62022E-04  1.20210E+04
   2 19  0  1.10780E-03  1.20314E+04
   2 20  0  2.46501E-06  1.20687E+04
   2 21  0  3.71561E-06  1.20696E+04
   2  3 12  1.84566E-02  8.43800E+01
   2  3 13  5.04976E-03  2.43950E+02
   2  3 14  7.11709E-03  2.56660E+02
   2  3 15  1.45102E-02  4.58390E+02
   2  3 16  1.90076E-02  4.60750E+02
   2  3 17  3.85251E-03  4.18860E+02
   2  3 18  2.51648E-03  4.47980E+02
   2  3 19  2.50548E-03  4.58350E+02
   2  3 20  3.03872E-04  4.95730E+02
   2  3 24  3.39937E-04  4.96300E+02
   2  4  9  3.39470E-01  5.48000E+01
   2  4 10  2.20873E-02  1.28630E+03
   2  4 11  9.00723E-03  1.38239E+03
   2  4 12  1.44403E-02  1.45138E+03
   2  4 13  3.08144E-02  1.61095E+03
   2  4 14  3.74005E-02  1.62366E+03
   2  4 15  2.12954E-02  1.82539E+03
   2  4 16  2.67308E-02  1.82775E+03
   2  4 17  3.73415E-03  1.78586E+03
   2  4 18  1.30545E-03  1.81498E+03
   2  4 19  2.02466E-03  1.82535E+03
   2  4 20  1.71160E-03  1.86273E+03
   2  4 24  3.30101E-04  1.86330E+03
   2  5  5  5.39577E-03  6.48400E+03
   2  5  6  1.09728E-02  6.71270E+03
   2  5  7  1.83678E-02  7.00930E+03
   2  5  8  1.39984E-02  7.39940E+03
   2  5  9  1.85818E-02  7.46430E+03
   2  5 10  2.21144E-03  8.69580E+03
   2  5 11  2.52700E-03  8.79189E+03
   2  5 12  4.15241E-03  8.86088E+03
   2  5 13  2.78857E-03  9.02045E+03
   2  5 14  3.66197E-03  9.03316E+03
   2  5 15  1.84478E-04  9.23489E+03
   2  5 16  2.09295E-04  9.23725E+03
   2  5 17  3.80675E-04  9.19536E+03
   2  5 18  3.74116E-04  9.22448E+03
   2  5 19  5.85751E-04  9.23485E+03
   2  5 20  1.62241E-04  9.27223E+03
   2  5 24  3.37121E-05  9.27280E+03
   2  6  6  2.92640E-05  6.94140E+03
   2  6  7  2.53775E-04  7.23800E+03
   2  6  8  6.32803E-04  7.62810E+03
   2  6  9  5.80660E-03  7.69300E+03
   2  6 10  1.77386E-03  8.92450E+03
   2  6 11  4.68215E-06  9.02059E+03
   2  6 12  5.12690E-05  9.08958E+03
   2  6 13  1.15885E-04  9.24915E+03
   2  6 14  7.33000E-04  9.26186E+03
   2  6 15  6.55510E-05  9.46359E+03
   2  6 16  2.29418E-04  9.46595E+03
   2  6 17  2.89121E-04  9.42406E+03
   2  6 18  4.68215E-07  9.45318E+03
   2  6 19  7.02324E-06  9.46355E+03
   2  6 20  6.78907E-06  9.50093E+03
   2  6 24  2.55175E-05  9.50150E+03
   2  7  7  5.07792E-04  7.53460E+03
   2  7  8  2.41462E-03  7.92470E+03
   2  7  9  1.51373E-03  7.98960E+03
   2  7 10  2.94326E-03  9.22110E+03
   2  7 11  5.61875E-05  9.31719E+03
   2  7 12  1.70430E-04  9.38618E+03
   2  7 13  2.12815E-04  9.54575E+03
   2  7 14  1.25026E-04  9.55846E+03
   2  7 15  1.39764E-04  9.76019E+03
   2  7 16  1.15187E-04  9.76255E+03
   2  7 17  4.78765E-04  9.72066E+03
   2  7 18  8.19385E-06  9.74978E+03
   2  7 19  2.27084E-05  9.76015E+03
   2  7 20  1.10028E-05  9.79753E+03
   2  7 24  4.21401E-05  9.79810E+03
   2  8  8  8.31788E-04  8.31480E+03
   2  8  9  2.58815E-02  8.37970E+03
   2  8 10  2.07822E-03  9.61120E+03
   2  8 11  1.79326E-04  9.70729E+03
   2  8 12  5.98390E-04  9.77628E+03
   2  8 13  3.23537E-04  9.93585E+03
   2  8 14  3.58502E-03  9.94856E+03
   2  8 15  2.06012E-04  1.01503E+04
   2  8 16  5.72623E-04  1.01526E+04
   2  8 17  3.33366E-04  1.01108E+04
   2  8 18  2.76253E-05  1.01399E+04
   2  8 19  8.56845E-05  1.01503E+04
   2  8 20  1.87285E-05  1.01876E+04
   2  8 24  2.92641E-05  1.01882E+04
   2  9  9  7.21941E-03  8.44460E+03
   2  9 10  2.79283E-03  9.67610E+03
   2  9 11  1.19341E-03  9.77219E+03
   2  9 12  3.91185E-04  9.84118E+03
   2  9 13  3.50592E-03  1.00008E+04
   2  9 14  2.10905E-03  1.00135E+04
   2  9 15  6.35585E-04  1.02152E+04
   2  9 16  4.84590E-04  1.02175E+04
   2  9 17  4.49945E-04  1.01757E+04
   2  9 18  1.73231E-04  1.02048E+04
   2  9 19  5.64187E-05  1.02151E+04
   2  9 20  1.92908E-04  1.02525E+04
   2  9 24  3.95625E-05  1.02531E+04
   2 10 10  2.13983E-04  1.09076E+04
   2 10 11  4.10158E-04  1.10037E+04
   2 10 12  6.68154E-04  1.10727E+04
   2 10 13  4.14377E-04  1.12323E+04
   2 10 14  5.48050E-04  1.12450E+04
   2 10 15  2.24741E-05  1.14467E+04
   2 10 16  2.48158E-05  1.14490E+04
   2 10 17  7.28087E-05  1.14072E+04
   2 10 18  6.08692E-05  1.14363E+04
   2 10 19  9.43480E-05  1.14466E+04
   2 10 20  2.41139E-05  1.14840E+04
   2 10 24  6.55516E-06  1.14846E+04
   2 11 12  1.14707E-05  1.11688E+04
   2 11 13  2.83277E-05  1.13283E+04
   2 11 14  1.56152E-04  1.13410E+04
   2 11 15  8.89628E-06  1.15428E+04
   2 11 16  3.51170E-05  1.15451E+04
   2 11 17  6.69564E-05  1.15033E+04
   2 11 19  1.63881E-06  1.15427E+04
   2 11 20  1.63881E-06  1.15801E+04
   2 11 24  5.85283E-06  1.15807E+04
   2 12 12  1.38120E-05  1.12378E+04
   2 12 13  5.94631E-05  1.13973E+04
   2 12 14  3.79243E-05  1.14100E+04
   2 12 15  2.59851E-05  1.16118E+04
   2 12 16  2.08359E-05  1.16141E+04
   2 12 17  1.08634E-04  1.15722E+04
   2 12 18  1.63876E-06  1.16014E+04
   2 12 19  3.74564E-06  1.16117E+04
   2 12 20  3.04335E-06  1.16491E+04
   2 12 24  9.59837E-06  1.16497E+04
   2 13 13  2.92641E-05  1.15569E+04
   2 13 14  5.29789E-04  1.15696E+04
   2 13 15  2.76253E-05  1.17713E+04
   2 13 16  5.92301E-05  1.17737E+04
   2 13 17  6.64870E-05  1.17318E+04
   2 13 18  4.21393E-06  1.17609E+04
   2 13 19  8.66204E-06  1.17713E+04
   2 13 20  3.27746E-06  1.18087E+04
   2 13 24  5.85272E-06  1.18093E+04
   2 14 14  1.64809E-04  1.15823E+04
   2 14 15  6.85942E-05  1.17840E+04
   2 14 16  5.82945E-05  1.17864E+04
   2 14 17  8.80238E-05  1.17445E+04
   2 14 18  2.27081E-05  1.17736E+04
   2 14 19  5.61868E-06  1.17840E+04
   2 14 20  2.94973E-05  1.18214E+04
   2 14 24  7.72561E-06  1.18220E+04
   2 15 15  7.99890E-07  1.19858E+04
   2 15 16  1.87965E-05  1.19881E+04
   2 15 17  5.99918E-06  1.19463E+04
   2 15 18  1.99973E-06  1.19754E+04
   2 15 19  5.99918E-06  1.19857E+04
   2 15 20  2.79965E-06  1.20231E+04
   2 15 24  3.99945E-07  1.20237E+04
   2 16 16  3.97975E-06  1.19905E+04
   2 16 17  6.36754E-06  1.19486E+04
   2 16 18  8.35742E-06  1.19777E+04
   2 16 19  4.77573E-06  1.19881E+04
   2 16 20  5.17365E-06  1.20255E+04
   2 16 24  3.97975E-07  1.20260E+04
   2 17 17  1.97272E-05  1.19067E+04
   2 17 18  3.18652E-05  1.19358E+04
   2 17 19  5.00757E-05  1.19462E+04
   2 17 20  1.28985E-05  1.19836E+04
   2 17 24  3.79368E-06  1.19842E+04
   2 18 19  1.34840E-06  1.19753E+04
   2 18 20  1.34840E-06  1.20127E+04
   2 18 24  5.39343E-06  1.20133E+04
   2 19 19  4.55331E-07  1.19857E+04
   2 19 20  9.10662E-07  1.20231E+04
   2 19 24  2.73192E-06  1.20236E+04
   2 20 24  4.38281E-07  1.20610E+04
   3  4  0  3.19950E-06  1.36700E+03
   3  5  0  6.76290E-03  8.72442E+03
   3  7  0  2.11970E-04  9.26872E+03
   3  8  0  2.39390E-01  9.67258E+03
   3 10  0  1.61060E-03  1.09883E+04
   3 12  0  5.48840E-05  1.11534E+04
   3 13  0  4.45530E-02  1.13130E+04
   3 15  0  1.17470E-04  1.15274E+04
   3 17  0  3.08850E-04  1.14879E+04
   3 19  0  1.14250E-05  1.15274E+04
   3 20  0  1.22050E-03  1.15647E+04
   3  4 10  6.65395E-03  7.82300E+02
   3  4 11  4.20762E-02  8.78390E+02
   3  4 12  1.26705E-02  9.47380E+02
   3  4 13  4.68123E-02  1.10695E+03
   3  4 14  1.63721E-02  1.11966E+03
   3  4 15  1.48972E-03  1.32139E+03
   3  4 16  2.25975E-03  1.32375E+03
   3  4 17  1.07763E-03  1.28186E+03
   3  4 18  5.81037E-03  1.31098E+03
   3  4 19  1.75656E-03  1.32135E+03
   3  4 20  2.63625E-03  1.35873E+03
   3  4 24  9.45702E-05  1.35930E+03
   3  5  5  7.01115E-04  5.98000E+03
   3  5  6  2.18505E-02  6.20870E+03
   3  5  7  2.09638E-03  6.50530E+03
   3  5  8  2.81842E-03  6.89540E+03
   3  5  9  2.31122E-03  6.96030E+03
   3  5 10  2.62127E-04  8.19180E+03
   3  5 11  3.34211E-03  8.28789E+03
   3  5 12  4.23245E-04  8.35688E+03
   3  5 13  3.98141E-04  8.51645E+03
   3  5 14  2.77870E-04  8.52916E+03
   3  5 15  8.58143E-05  8.73089E+03
   3  5 16  5.72088E-05  8.73325E+03
   3  5 17  4.37832E-05  8.69136E+03
   3  5 18  4.59437E-04  8.72048E+03
   3  5 19  5.83780E-05  8.73085E+03
   3  5 20  2.21833E-05  8.76823E+03
   3  5 24  4.08636E-06  8.76880E+03
   3  6  6  2.24645E-02  6.43740E+03
   3  6  7  6.14276E-02  6.73400E+03
   3  6  8  3.24184E-02  7.12410E+03
   3  6  9  4.92659E-02  7.18900E+03
   3  6 10  5.39860E-03  8.42050E+03
   3  6 11  8.74500E-03  8.51659E+03
   3  6 12  1.36505E-02  8.58558E+03
   3  6 13  6.45542E-03  8.74515E+03
   3  6 14  9.75398E-03  8.75786E+03
   3  6 15  4.03394E-04  8.95959E+03
   3  6 16  3.66599E-04  8.96195E+03
   3  6 17  9.56769E-04  8.92006E+03
   3  6 18  1.26210E-03  8.94918E+03
   3  6 19  1.92062E-03  8.95955E+03
   3  6 20  3.75355E-04  8.99693E+03
   3  6 24  8.52342E-05  8.99750E+03
   3  7  7  1.48743E-03  7.03060E+03
   3  7  8  3.26011E-02  7.42070E+03
   3  7  9  4.58457E-03  7.48560E+03
   3  7 10  4.37838E-04  8.71710E+03
   3  7 11  9.65187E-03  8.81319E+03
   3  7 12  5.63340E-04  8.88218E+03
   3  7 13  5.46188E-03  9.04175E+03
   3  7 14  7.31497E-04  9.05446E+03
   3  7 15  1.96149E-04  9.25619E+03
   3  7 16  1.06247E-04  9.25855E+03
   3  7 17  7.47230E-05  9.21666E+03
   3  7 18  1.33281E-03  9.24578E+03
   3  7 19  7.70585E-05  9.25615E+03
   3  7 20  3.09996E-04  9.29353E+03
   3  7 24  6.42170E-06  9.29410E+03
   3  8  8  3.06344E-02  7.81080E+03
   3  8  9  1.24715E-01  7.87570E+03
   3  8 10  7.00536E-04  9.10720E+03
   3  8 11  4.99251E-03  9.20329E+03
   3  8 12  6.74668E-03  9.27228E+03
   3  8 13  1.01742E-02  9.43185E+03
   3  8 14  2.22527E-02  9.44456E+03
   3  8 15  1.51959E-03  9.64629E+03
   3  8 16  3.09109E-03  9.64865E+03
   3  8 17  1.24342E-04  9.60676E+03
   3  8 18  6.91789E-04  9.63588E+03
   3  8 19  9.36959E-04  9.64625E+03
   3  8 20  5.79109E-04  9.68363E+03
   3  8 24  1.10921E-05  9.68420E+03
   3  9  9  6.02108E-03  7.94060E+03
   3  9 10  4.64119E-04  9.17210E+03
   3  9 11  6.70764E-03  9.26819E+03
   3  9 12  8.70996E-04  9.33718E+03
   3  9 13  1.70843E-02  9.49675E+03
   3  9 14  1.95103E-03  9.50946E+03
   3  9 15  6.10050E-04  9.71119E+03
   3  9 16  2.34695E-04  9.71355E+03
   3  9 17  7.88080E-05  9.67166E+03
   3  9 18  9.00775E-04  9.70078E+03
   3  9 19  1.19095E-04  9.71115E+03
   3  9 20  9.43393E-04  9.74853E+03
   3  9 24  7.00544E-06  9.74910E+03
   3 10 10  2.33510E-05  1.04036E+04
   3 10 11  8.30711E-04  1.04997E+04
   3 10 12  8.87367E-05  1.05687E+04
   3 10 13  9.57432E-05  1.07283E+04
   3 10 14  5.60438E-05  1.07410E+04
   3 10 15  1.86810E-05  1.09427E+04
   3 10 16  9.92439E-06  1.09450E+04
   3 10 17  7.58947E-06  1.09032E+04
   3 10 18  1.14421E-04  1.09323E+04
   3 10 19  1.22595E-05  1.09426E+04
   3 10 20  5.25410E-06  1.09800E+04
   3 10 24  5.83792E-07  1.09806E+04
   3 11 11  8.09677E-04  1.05958E+04
   3 11 12  2.14889E-03  1.06648E+04
   3 11 13  9.78390E-04  1.08243E+04
   3 11 14  1.33975E-03  1.08370E+04
   3 11 15  5.07883E-05  1.10388E+04
   3 11 16  3.73626E-05  1.10411E+04
   3 11 17  1.47105E-04  1.09993E+04
   3 11 18  2.31769E-04  1.10284E+04
   3 11 19  3.02396E-04  1.10387E+04
   3 11 20  5.66266E-05  1.10761E+04
   3 11 24  1.28435E-05  1.10767E+04
   3 12 12  5.37091E-05  1.07338E+04
   3 12 13  1.13961E-03  1.08933E+04
   3 12 14  1.41860E-04  1.09060E+04
   3 12 15  3.32765E-05  1.11078E+04
   3 12 16  1.69298E-05  1.11101E+04
   3 12 17  1.51783E-05  1.10682E+04
   3 12 18  2.96571E-04  1.10974E+04
   3 12 19  1.45952E-05  1.11077E+04
   3 12 20  6.48016E-05  1.11451E+04
   3 12 24  1.16755E-06  1.11457E+04
   3 13 13  8.35431E-04  1.10529E+04
   3 13 14  3.17043E-03  1.10656E+04
   3 13 15  1.73386E-04  1.12673E+04
   3 13 16  3.57278E-04  1.12697E+04
   3 13 17  1.69293E-05  1.12278E+04
   3 13 18  1.34849E-04  1.12569E+04
   3 13 19  1.58787E-04  1.12673E+04
   3 13 20  9.51573E-05  1.13047E+04
   3 13 24  1.75135E-06  1.13053E+04
   3 14 14  1.82747E-04  1.10783E+04
   3 14 15  8.63547E-05  1.12800E+04
   3 14 16  3.34705E-05  1.12824E+04
   3 14 17  1.07108E-05  1.12405E+04
   3 14 18  2.06843E-04  1.12696E+04
   3 14 19  2.20908E-05  1.12800E+04
   3 14 20  2.01493E-04  1.13174E+04
   3 14 24  6.69421E-07  1.13180E+04
   3 15 15  3.48544E-06  1.14818E+04
   3 15 16  2.64894E-05  1.14841E+04
   3 15 17  4.18246E-06  1.14423E+04
   3 15 18  8.36515E-06  1.14714E+04
   3 15 19  5.57683E-06  1.14817E+04
   3 15 20  1.11537E-05  1.15191E+04
   3 16 16  1.50518E-06  1.14865E+04
   3 16 17  2.25786E-06  1.14446E+04
   3 16 18  6.02103E-06  1.14737E+04
   3 16 19  3.01040E-06  1.14841E+04
   3 16 20  2.48365E-05  1.15215E+04
   3 17 17  8.18826E-07  1.14027E+04
   3 17 18  2.86584E-05  1.14318E+04
   3 17 19  3.27521E-06  1.14422E+04
   3 17 20  1.63758E-06  1.14796E+04
   3 18 18  2.62498E-05  1.14610E+04
   3 18 19  6.75000E-05  1.14713E+04
   3 18 20  1.21876E-05  1.15087E+04
   3 18 24  2.81244E-06  1.15093E+04
   3 19 19  1.16753E-06  1.14817E+04
   3 19 20  8.75647E-06  1.15191E+04
   3 20 20  2.91880E-06  1.15565E+04
   4  5  0  1.25270E-02  7.38782E+03
   4  6  0  1.07220E-04  7.63141E+03
   4  7  0  9.71278E-05  7.92644E+03
   4  8  0  2.12730E-02  8.33534E+03
   4  9  0  1.87700E-01  8.39824E+03
   4 10  0  2.33790E-03  9.62130E+03
   4 11  0  2.26230E-05  9.71739E+03
   4 12  0  2.23060E-05  9.78638E+03
   4 13  0  3.71129E-03  9.94595E+03
   4 14  0  3.32849E-02  9.95866E+03
   4 15  0  1.73100E-05  1.01604E+04
   4 16  0  9.71988E-05  1.01628E+04
   4 17  0  4.73079E-04  1.01209E+04
   4 18  0  4.83819E-06  1.01500E+04
   4 19  0  4.56019E-06  1.01604E+04
   4 20  0  1.01660E-04  1.01977E+04
   4 21  0  8.69029E-04  1.01986E+04
   4  5  5  9.23745E-04  4.61300E+03
   4  5  6  5.19074E-04  4.84170E+03
   4  5  7  2.35184E-02  5.13830E+03
   4  5  8  2.65405E-03  5.52840E+03
   4  5  9  3.88773E-03  5.59330E+03
   4  5 10  3.46625E-04  6.82480E+03
   4  5 11  9.18436E-05  6.92089E+03
   4  5 12  3.52791E-03  6.98988E+03
   4  5 13  2.54797E-04  7.14945E+03
   4  5 14  3.36573E-04  7.16216E+03
   4  5 15  1.59986E-04  7.36389E+03
   4  5 16  2.87384E-04  7.36625E+03
   4  5 17  5.80682E-05  7.32436E+03
   4  5 18  1.30360E-05  7.35348E+03
   4  5 19  4.62793E-04  7.36385E+03
   4  5 20  1.36283E-05  7.40123E+03
   4  5 24  5.33297E-06  7.40180E+03
   4  6  6  9.83613E-05  5.07040E+03
   4  6  7  3.94669E-02  5.36700E+03
   4  6  8  2.07800E-03  5.75710E+03
   4  6  9  1.83171E-02  5.82200E+03
   4  6 10  1.04289E-04  7.05350E+03
   4  6 11  3.96995E-05  7.14959E+03
   4  6 12  6.14990E-03  7.21858E+03
   4  6 13  3.72105E-04  7.37815E+03
   4  6 14  2.72914E-03  7.39086E+03
   4  6 15  1.67094E-04  7.59259E+03
   4  6 16  4.33139E-04  7.59495E+03
   4  6 17  1.77762E-05  7.55306E+03
   4  6 18  5.92547E-06  7.58218E+03
   4  6 19  8.12346E-04  7.59255E+03
   4  6 20  2.13311E-05  7.62993E+03
   4  6 24  1.77762E-06  7.63050E+03
   4  7  7  5.16042E-02  5.66360E+03
   4  7  8  5.38647E-02  6.05370E+03
   4  7  9  7.56873E-02  6.11860E+03
   4  7 10  5.73036E-03  7.35010E+03
   4  7 11  8.59420E-03  7.44619E+03
   4  7 12  1.93829E-02  7.51518E+03
   4  7 13  1.01669E-02  7.67475E+03
   4  7 14  1.40280E-02  7.68746E+03
   4  7 15  6.90904E-04  7.88919E+03
   4  7 16  8.70470E-04  7.89155E+03
   4  7 17  1.01267E-03  7.84966E+03
   4  7 18  1.26156E-03  7.87878E+03
   4  7 19  2.65753E-03  7.88915E+03
   4  7 20  5.87793E-04  7.92653E+03
   4  7 24  9.00670E-05  7.92710E+03
   4  8  8  7.66398E-03  6.44380E+03
   4  8  9  1.44331E-01  6.50870E+03
   4  8 10  6.18620E-04  7.74020E+03
   4  8 11  4.63368E-04  7.83629E+03
   4  8 12  7.70669E-03  7.90528E+03
   4  8 13  2.48643E-03  8.06485E+03
   4  8 14  1.96100E-02  8.07756E+03
   4  8 15  3.87525E-04  8.27929E+03
   4  8 16  1.32193E-03  8.28165E+03
   4  8 17  1.08441E-04  8.23976E+03
   4  8 18  6.81428E-05  8.26888E+03
   4  8 19  1.00263E-03  8.27925E+03
   4  8 20  1.41018E-04  8.31663E+03
   4  8 24  9.48054E-06  8.31720E+03
   4  9  9  9.66788E-02  6.57360E+03
   4  9 10  9.37392E-04  7.80510E+03
   4  9 11  3.64850E-03  7.90119E+03
   4  9 12  1.22214E-02  7.97018E+03
   4  9 13  2.36783E-02  8.12975E+03
   4  9 14  2.98948E-02  8.14246E+03
   4  9 15  4.12066E-03  8.34419E+03
   4  9 16  3.76354E-03  8.34655E+03
   4  9 17  1.66519E-04  8.30466E+03
   4  9 18  5.26786E-04  8.33378E+03
   4  9 19  1.63426E-03  8.34415E+03
   4  9 20  1.34393E-03  8.38153E+03
   4  9 24  1.48144E-05  8.38210E+03
   4 10 10  3.25910E-05  9.03660E+03
   4 10 11  1.89614E-05  9.13269E+03
   4 10 12  8.60989E-04  9.20168E+03
   4 10 13  6.51811E-05  9.36125E+03
   4 10 14  8.82940E-05  9.37396E+03
   4 10 15  2.25175E-05  9.57569E+03
   4 10 16  4.56262E-05  9.57805E+03
   4 10 17  1.12582E-05  9.53616E+03
   4 10 18  2.96274E-06  9.56528E+03
   4 10 19  1.13177E-04  9.57565E+03
   4 10 20  3.55526E-06  9.61303E+03
   4 10 24  1.18515E-06  9.61360E+03
   4 11 11  2.96267E-06  9.22878E+03
   4 11 12  1.33380E-03  9.29777E+03
