 PENELOPE (v. 2014)  Material data file ...............
 Material: B_02                                                          
 Mass density = 1.86661342E+00 g/cm**3
 Number of elements in the molecule =  3
   atomic number =  1,  atoms/molecule = 3.85381205E-01
   atomic number =  5,  atoms/molecule = 1.00000000E+00
   atomic number =  6,  atoms/molecule = 1.92683730E-01
 Mean excitation energy = 7.08765506E+01 eV
 Number of oscillators =  5 (E/P inelastic model)
   1  3.38536746E+00  0.00000000E+00  1.97049306E+01   0  30
   2  3.85381205E-01  1.36000000E+01  3.54648947E+01   1  30
   3  3.85367460E-01  1.65900000E+01  4.30954109E+01   6  30
   4  2.00000000E+00  1.92000000E+02  4.94935500E+02   5  30
   5  3.85367460E-01  2.88000000E+02  7.42191328E+02   6   1
 Number of shells =  5 (Compton IA model)
   1  3.38536746E+00  0.00000000E+00  6.74732197E-01   0  30
   2  3.85381205E-01  1.36000000E+01  8.48807000E-01   1  30
   3  3.85367460E-01  1.65900000E+01  8.03154000E-01   6  30
   4  2.00000000E+00  1.92000000E+02  1.85913000E-01   5  30
   5  3.85367460E-01  2.88000000E+02  1.53080000E-01   6   1
 *** RELAX:  Z =  1,  no. of shells =  1,  no. of transitions =    0
   1 1s1/2 1  1.36000E+01  0.00000E+00  8.48807E-01
 *** RELAX:  Z =  5,  no. of shells =  3,  no. of transitions =    2
   1 1s1/2 2  1.92000E+02  0.00000E+00  1.85913E-01
   2 2s1/2 2  1.13860E+01  0.00000E+00  1.00114E+00
   3 2p1/2 1  1.13860E+01  0.00000E+00  6.14623E-01
   1  3  0  5.70000E-04  1.83300E+02
   1  3  3  9.99430E-01  1.69000E+02
 *** RELAX:  Z =  6,  no. of shells =  3,  no. of transitions =    8
   1 1s1/2 2  2.88000E+02  6.14394E-02  1.53080E-01
   2 2s1/2 2  1.65900E+01  0.00000E+00  8.03154E-01
   3 2p1/2 2  1.12600E+01  0.00000E+00  4.88373E-01
   1  3  0  5.61488E-04  2.77000E+02
   1  4  0  1.12060E-03  2.77000E+02
   1  2  2  4.13609E-01  2.55890E+02
   1  2  3  1.36190E-01  2.64460E+02
   1  2  4  2.71099E-01  2.64470E+02
   1  3  3  4.20748E-03  2.73030E+02
   1  3  4  1.10012E-01  2.73040E+02
   1  4  4  6.32008E-02  2.73050E+02
 *** Electron ionisation cross sections,  IZ =  1,  NSHELL =  1,  NDATA = 211
 1.00000E+01 0.00000E+00
 1.10000E+01 0.00000E+00
 1.25000E+01 0.00000E+00
 1.36000E+01 0.00000E+00
 1.36000E+01 0.00000E+00
 1.40000E+01 6.68213E-18
 1.49600E+01 2.04927E-17
 1.50000E+01 2.10082E-17
 1.51209E+01 2.25396E-17
 1.52834E+01 2.45392E-17
 1.54478E+01 2.64923E-17
 1.56139E+01 2.84001E-17
 1.57818E+01 3.02632E-17
 1.59515E+01 3.20827E-17
 1.61230E+01 3.38594E-17
 1.62963E+01 3.55942E-17
 1.64716E+01 3.72878E-17
 1.66487E+01 3.89411E-17
 1.68277E+01 4.05549E-17
 1.70086E+01 4.21299E-17
 1.71915E+01 4.36670E-17
 1.73763E+01 4.51668E-17
 1.75000E+01 4.61411E-17
 1.75632E+01 4.66301E-17
 1.77520E+01 4.80577E-17
 1.79429E+01 4.94501E-17
 1.81358E+01 5.08081E-17
 1.83308E+01 5.21323E-17
 1.85279E+01 5.34235E-17
 1.87272E+01 5.46822E-17
 1.89285E+01 5.59090E-17
 1.91320E+01 5.71046E-17
 1.93378E+01 5.82695E-17
 1.95457E+01 5.94043E-17
 1.97559E+01 6.05097E-17
 1.99683E+01 6.15861E-17
 2.00000E+01 6.17434E-17
 2.01830E+01 6.26341E-17
 2.04000E+01 6.36542E-17
 2.15129E+01 6.83199E-17
 2.20000E+01 7.01020E-17
 2.26866E+01 7.23786E-17
 2.39242E+01 7.58740E-17
 2.50000E+01 7.83735E-17
 2.52294E+01 7.88504E-17
 2.66058E+01 8.13528E-17
 2.80573E+01 8.34258E-17
 2.95879E+01 8.51035E-17
 3.00000E+01 8.54787E-17
 3.12021E+01 8.64118E-17
 3.29043E+01 8.73763E-17
 3.46994E+01 8.80222E-17
 3.50000E+01 8.80987E-17
 3.65924E+01 8.83733E-17
 3.85887E+01 8.84532E-17
 4.00000E+01 8.83651E-17
 4.06939E+01 8.82847E-17
 4.29140E+01 8.78890E-17
 4.50000E+01 8.73588E-17
 4.77241E+01 8.64921E-17
 5.00000E+01 8.56545E-17
 5.30733E+01 8.44075E-17
 5.50000E+01 8.35789E-17
 5.59687E+01 8.31526E-17
 5.90220E+01 8.17760E-17
 6.00000E+01 8.13271E-17
 6.22420E+01 8.02905E-17
 6.56376E+01 7.87170E-17
 6.92184E+01 7.70630E-17
 7.00000E+01 7.67036E-17
 7.29946E+01 7.53374E-17
 7.69769E+01 7.35585E-17
 8.00000E+01 7.22428E-17
 8.11763E+01 7.17393E-17
 8.56049E+01 6.98868E-17
 9.00000E+01 6.81176E-17
 9.52000E+01 6.61149E-17
 1.00000E+02 6.43529E-17
 1.10000E+02 6.09386E-17
 1.25000E+02 5.64146E-17
 1.40000E+02 5.25062E-17
 1.50000E+02 5.01862E-17
 1.75000E+02 4.52174E-17
 2.00000E+02 4.11550E-17
 2.20000E+02 3.84291E-17
 2.50000E+02 3.50738E-17
 3.00000E+02 3.06388E-17
 3.50000E+02 2.72262E-17
 4.00000E+02 2.45288E-17
 4.50000E+02 2.23357E-17
 5.00000E+02 2.05169E-17
 5.50000E+02 1.89870E-17
 6.00000E+02 1.76786E-17
 7.00000E+02 1.55585E-17
 8.00000E+02 1.39113E-17
 9.00000E+02 1.25956E-17
 1.00000E+03 1.15184E-17
 1.10000E+03 1.06168E-17
 1.25000E+03 9.51299E-18
 1.40000E+03 8.62911E-18
 1.50000E+03 8.12924E-18
 1.75000E+03 7.10966E-18
 2.00000E+03 6.32749E-18
 2.20000E+03 5.82130E-18
 2.50000E+03 5.20413E-18
 3.00000E+03 4.43338E-18
 3.50000E+03 3.87020E-18
 4.00000E+03 3.43989E-18
 4.50000E+03 3.09991E-18
 5.00000E+03 2.82421E-18
 5.50000E+03 2.59595E-18
 6.00000E+03 2.40370E-18
 7.00000E+03 2.09749E-18
 8.00000E+03 1.86416E-18
 9.00000E+03 1.68019E-18
 1.00000E+04 1.53128E-18
 1.10000E+04 1.40818E-18
 1.25000E+04 1.25879E-18
 1.40000E+04 1.14001E-18
 1.50000E+04 1.07343E-18
 1.75000E+04 9.38872E-19
 2.00000E+04 8.36586E-19
 2.20000E+04 7.70819E-19
 2.50000E+04 6.91124E-19
 3.00000E+04 5.92427E-19
 3.50000E+04 5.20938E-19
 4.00000E+04 4.66704E-19
 4.50000E+04 4.24118E-19
 5.00000E+04 3.89774E-19
 5.50000E+04 3.61475E-19
 6.00000E+04 3.37751E-19
 7.00000E+04 3.00190E-19
 8.00000E+04 2.71783E-19
 9.00000E+04 2.49549E-19
 1.00000E+05 2.31671E-19
 1.10000E+05 2.16988E-19
 1.25000E+05 1.99310E-19
 1.40000E+05 1.85387E-19
 1.50000E+05 1.77642E-19
 1.75000E+05 1.62158E-19
 2.00000E+05 1.50575E-19
 2.20000E+05 1.43237E-19
 2.50000E+05 1.34487E-19
 3.00000E+05 1.23941E-19
 3.50000E+05 1.16576E-19
 4.00000E+05 1.11201E-19
 4.50000E+05 1.07149E-19
 5.00000E+05 1.04019E-19
 5.50000E+05 1.01555E-19
 6.00000E+05 9.95853E-20
 7.00000E+05 9.66928E-20
 8.00000E+05 9.47394E-20
 9.00000E+05 9.33937E-20
 1.00000E+06 9.24584E-20
 1.10000E+06 9.18103E-20
 1.25000E+06 9.12068E-20
 1.40000E+06 9.08999E-20
 1.50000E+06 9.08076E-20
 1.75000E+06 9.08318E-20
 2.00000E+06 9.10800E-20
 2.20000E+06 9.13685E-20
 2.50000E+06 9.18840E-20
 3.00000E+06 9.28356E-20
 3.50000E+06 9.38051E-20
 4.00000E+06 9.47454E-20
 4.50000E+06 9.56399E-20
 5.00000E+06 9.64849E-20
 5.50000E+06 9.72788E-20
 6.00000E+06 9.80276E-20
 7.00000E+06 9.93999E-20
 8.00000E+06 1.00629E-19
 9.00000E+06 1.01739E-19
 1.00000E+07 1.02750E-19
 1.10000E+07 1.03676E-19
 1.25000E+07 1.04932E-19
 1.40000E+07 1.06060E-19
 1.50000E+07 1.06750E-19
 1.75000E+07 1.08309E-19
 2.00000E+07 1.09668E-19
 2.20000E+07 1.10645E-19
 2.50000E+07 1.11961E-19
 3.00000E+07 1.13848E-19
 3.50000E+07 1.15451E-19
 4.00000E+07 1.16843E-19
 4.50000E+07 1.18076E-19
 5.00000E+07 1.19177E-19
 5.50000E+07 1.20178E-19
 6.00000E+07 1.21092E-19
 7.00000E+07 1.22713E-19
 8.00000E+07 1.24118E-19
 9.00000E+07 1.25363E-19
 1.00000E+08 1.26473E-19
 1.10000E+08 1.27479E-19
 1.25000E+08 1.28831E-19
 1.40000E+08 1.30030E-19
 1.50000E+08 1.30756E-19
 1.75000E+08 1.32387E-19
 2.00000E+08 1.33800E-19
 2.20000E+08 1.34813E-19
 2.50000E+08 1.36166E-19
 3.00000E+08 1.38097E-19
 3.50000E+08 1.39732E-19
 4.00000E+08 1.41149E-19
 4.50000E+08 1.42399E-19
 5.00000E+08 1.43517E-19
 5.50000E+08 1.44528E-19
 6.00000E+08 1.45451E-19
 7.00000E+08 1.47087E-19
 8.00000E+08 1.48504E-19
 9.00000E+08 1.49754E-19
 1.00000E+09 1.50873E-19
 *** Electron ionisation cross sections,  IZ =  5,  NSHELL =  1,  NDATA = 203
 4.00000E+01 0.00000E+00
 4.50000E+01 0.00000E+00
 5.00000E+01 0.00000E+00
 5.50000E+01 0.00000E+00
 6.00000E+01 0.00000E+00
 7.00000E+01 0.00000E+00
 8.00000E+01 0.00000E+00
 9.00000E+01 0.00000E+00
 1.00000E+02 0.00000E+00
 1.10000E+02 0.00000E+00
 1.25000E+02 0.00000E+00
 1.40000E+02 0.00000E+00
 1.50000E+02 0.00000E+00
 1.75000E+02 0.00000E+00
 1.92000E+02 0.00000E+00
 1.92000E+02 0.00000E+00
 1.93920E+02 1.39271E-20
 1.96583E+02 3.28223E-20
 1.99282E+02 5.14894E-20
 2.00000E+02 5.63713E-20
 2.02019E+02 6.99251E-20
 2.04793E+02 8.81262E-20
 2.07605E+02 1.06090E-19
 2.10456E+02 1.23814E-19
 2.13346E+02 1.41296E-19
 2.16276E+02 1.58535E-19
 2.19245E+02 1.75530E-19
 2.20000E+02 1.79772E-19
 2.22256E+02 1.92278E-19
 2.25308E+02 2.08779E-19
 2.28402E+02 2.25033E-19
 2.31538E+02 2.41039E-19
 2.34718E+02 2.56797E-19
 2.37941E+02 2.72307E-19
 2.41208E+02 2.87569E-19
 2.44521E+02 3.02584E-19
 2.47878E+02 3.17351E-19
 2.50000E+02 3.26454E-19
 2.51282E+02 3.31872E-19
 2.54733E+02 3.46147E-19
 2.58231E+02 3.60176E-19
 2.61777E+02 3.73962E-19
 2.65371E+02 3.87504E-19
 2.69015E+02 4.00805E-19
 2.72709E+02 4.13864E-19
 2.76454E+02 4.26684E-19
 2.80250E+02 4.39266E-19
 2.84099E+02 4.51610E-19
 2.88000E+02 4.63718E-19
 3.00000E+02 4.98631E-19
 3.03712E+02 5.08773E-19
 3.20281E+02 5.50607E-19
 3.37754E+02 5.89247E-19
 3.50000E+02 6.13381E-19
 3.56180E+02 6.24723E-19
 3.75611E+02 6.57061E-19
 3.96103E+02 6.86291E-19
 4.00000E+02 6.91343E-19
 4.17712E+02 7.12467E-19
 4.40500E+02 7.35680E-19
 4.50000E+02 7.44189E-19
 4.64532E+02 7.56018E-19
 4.89874E+02 7.73567E-19
 5.00000E+02 7.79594E-19
 5.16599E+02 7.88378E-19
 5.44782E+02 8.00492E-19
 5.50000E+02 8.02384E-19
 5.74503E+02 8.09986E-19
 6.00000E+02 8.15943E-19
 6.05845E+02 8.17061E-19
 6.38896E+02 8.21832E-19
 6.73751E+02 8.24351E-19
 7.00000E+02 8.24819E-19
 7.10508E+02 8.24710E-19
 7.49270E+02 8.23068E-19
 7.90146E+02 8.19626E-19
 8.00000E+02 8.18583E-19
 8.33252E+02 8.14516E-19
 8.78710E+02 8.07744E-19
 9.00000E+02 8.04207E-19
 9.26648E+02 7.99534E-19
 9.77201E+02 7.90026E-19
 1.00000E+03 7.85502E-19
 1.03051E+03 7.79271E-19
 1.08673E+03 7.67428E-19
 1.10000E+03 7.64587E-19
 1.14602E+03 7.54644E-19
 1.20854E+03 7.41008E-19
 1.25000E+03 7.31951E-19
 1.27447E+03 7.26620E-19
 1.34400E+03 7.11600E-19
 1.40000E+03 6.99701E-19
 1.50000E+03 6.79007E-19
 1.75000E+03 6.30848E-19
 2.00000E+03 5.88337E-19
 2.20000E+03 5.57984E-19
 2.50000E+03 5.17902E-19
 3.00000E+03 4.62711E-19
 3.50000E+03 4.19448E-19
 4.00000E+03 3.84003E-19
 4.50000E+03 3.54448E-19
 5.00000E+03 3.29308E-19
 5.50000E+03 3.07817E-19
 6.00000E+03 2.89158E-19
 7.00000E+03 2.58340E-19
 8.00000E+03 2.33958E-19
 9.00000E+03 2.14173E-19
 1.00000E+04 1.97724E-19
 1.10000E+04 1.83877E-19
 1.25000E+04 1.66692E-19
 1.40000E+04 1.52773E-19
 1.50000E+04 1.44830E-19
 1.75000E+04 1.28514E-19
 2.00000E+04 1.15896E-19
 2.20000E+04 1.07657E-19
 2.50000E+04 9.74961E-20
 3.00000E+04 8.47468E-20
 3.50000E+04 7.53393E-20
 4.00000E+04 6.80998E-20
 4.50000E+04 6.23470E-20
 5.00000E+04 5.76703E-20
 5.50000E+04 5.37869E-20
 6.00000E+04 5.05088E-20
 7.00000E+04 4.52758E-20
 8.00000E+04 4.12819E-20
 9.00000E+04 3.81323E-20
 1.00000E+05 3.55854E-20
 1.10000E+05 3.34828E-20
 1.25000E+05 3.09391E-20
 1.40000E+05 2.89262E-20
 1.50000E+05 2.78034E-20
 1.75000E+05 2.55519E-20
 2.00000E+05 2.38631E-20
 2.20000E+05 2.27920E-20
 2.50000E+05 2.15155E-20
 3.00000E+05 1.99808E-20
 3.50000E+05 1.89161E-20
 4.00000E+05 1.81466E-20
 4.50000E+05 1.75741E-20
 5.00000E+05 1.71391E-20
 5.50000E+05 1.68032E-20
 6.00000E+05 1.65415E-20
 7.00000E+05 1.61728E-20
 8.00000E+05 1.59432E-20
 9.00000E+05 1.58026E-20
 1.00000E+06 1.57216E-20
 1.10000E+06 1.56814E-20
 1.25000E+06 1.56728E-20
 1.40000E+06 1.57043E-20
 1.50000E+06 1.57399E-20
 1.75000E+06 1.58598E-20
 2.00000E+06 1.60039E-20
 2.20000E+06 1.61268E-20
 2.50000E+06 1.63149E-20
 3.00000E+06 1.66231E-20
 3.50000E+06 1.69144E-20
 4.00000E+06 1.71859E-20
 4.50000E+06 1.74378E-20
 5.00000E+06 1.76718E-20
 5.50000E+06 1.78897E-20
 6.00000E+06 1.80931E-20
 7.00000E+06 1.84627E-20
 8.00000E+06 1.87911E-20
 9.00000E+06 1.90860E-20
 1.00000E+07 1.93534E-20
 1.10000E+07 1.95979E-20
 1.25000E+07 1.99289E-20
 1.40000E+07 2.02253E-20
 1.50000E+07 2.04069E-20
 1.75000E+07 2.08151E-20
 2.00000E+07 2.11711E-20
 2.20000E+07 2.14265E-20
 2.50000E+07 2.17707E-20
 3.00000E+07 2.22634E-20
 3.50000E+07 2.26821E-20
 4.00000E+07 2.30454E-20
 4.50000E+07 2.33669E-20
 5.00000E+07 2.36548E-20
 5.50000E+07 2.39156E-20
 6.00000E+07 2.41537E-20
 7.00000E+07 2.45772E-20
 8.00000E+07 2.49434E-20
 9.00000E+07 2.52678E-20
 1.00000E+08 2.55573E-20
 1.10000E+08 2.58201E-20
 1.25000E+08 2.61724E-20
 1.40000E+08 2.64846E-20
 1.50000E+08 2.66748E-20
 1.75000E+08 2.71004E-20
 2.00000E+08 2.74690E-20
 2.20000E+08 2.77321E-20
 2.50000E+08 2.80861E-20
 3.00000E+08 2.85882E-20
 3.50000E+08 2.90153E-20
 4.00000E+08 2.93835E-20
 4.50000E+08 2.97091E-20
 5.00000E+08 3.00005E-20
 5.50000E+08 3.02640E-20
 6.00000E+08 3.05046E-20
 7.00000E+08 3.09310E-20
 8.00000E+08 3.13003E-20
 9.00000E+08 3.16261E-20
 1.00000E+09 3.19175E-20
 *** Electron ionisation cross sections,  IZ =  6,  NSHELL =  1,  NDATA = 201
 4.00000E+01 0.00000E+00
 4.50000E+01 0.00000E+00
 5.00000E+01 0.00000E+00
 5.50000E+01 0.00000E+00
 6.00000E+01 0.00000E+00
 7.00000E+01 0.00000E+00
 8.00000E+01 0.00000E+00
 9.00000E+01 0.00000E+00
 1.00000E+02 0.00000E+00
 1.10000E+02 0.00000E+00
 1.25000E+02 0.00000E+00
 1.40000E+02 0.00000E+00
 1.50000E+02 0.00000E+00
 1.75000E+02 0.00000E+00
 2.00000E+02 0.00000E+00
 2.20000E+02 0.00000E+00
 2.50000E+02 0.00000E+00
 2.88000E+02 0.00000E+00
 2.88000E+02 0.00000E+00
 2.90880E+02 6.47323E-21
 2.94874E+02 1.52506E-20
 2.98924E+02 2.39164E-20
 3.00000E+02 2.61817E-20
 3.03028E+02 3.24693E-20
 3.07189E+02 4.09082E-20
 3.11408E+02 4.92320E-20
 3.15684E+02 5.74399E-20
 3.20019E+02 6.55311E-20
 3.24413E+02 7.35052E-20
 3.28868E+02 8.13616E-20
 3.33384E+02 8.91001E-20
 3.37962E+02 9.67204E-20
 3.42603E+02 1.04222E-19
 3.47307E+02 1.11606E-19
 3.50000E+02 1.15735E-19
 3.52077E+02 1.18872E-19
 3.56911E+02 1.26019E-19
 3.61812E+02 1.33049E-19
 3.66781E+02 1.39961E-19
 3.71817E+02 1.46756E-19
 3.76923E+02 1.53435E-19
 3.82099E+02 1.59997E-19
 3.87346E+02 1.66443E-19
 3.92665E+02 1.72774E-19
 3.98057E+02 1.78991E-19
 4.00000E+02 1.81183E-19
 4.03523E+02 1.85093E-19
 4.09064E+02 1.91083E-19
 4.14681E+02 1.96959E-19
 4.20376E+02 2.02724E-19
 4.26148E+02 2.08377E-19
 4.32000E+02 2.13919E-19
 4.50000E+02 2.29866E-19
 4.55568E+02 2.34498E-19
 4.80421E+02 2.53570E-19
 5.00000E+02 2.66888E-19
 5.06631E+02 2.71086E-19
 5.34270E+02 2.87060E-19
 5.50000E+02 2.95159E-19
 5.63417E+02 3.01560E-19
 5.94154E+02 3.14653E-19
 6.00000E+02 3.16917E-19
 6.26568E+02 3.26382E-19
 6.60750E+02 3.36761E-19
 7.00000E+02 3.46521E-19
 7.34811E+02 3.53527E-19
 7.74899E+02 3.59981E-19
 8.00000E+02 3.63267E-19
 8.17173E+02 3.65218E-19
 8.61754E+02 3.69289E-19
 9.00000E+02 3.71784E-19
 9.08767E+02 3.72242E-19
 9.58345E+02 3.74134E-19
 1.00000E+03 3.74923E-19
 1.01063E+03 3.75023E-19
 1.06576E+03 3.74965E-19
 1.10000E+03 3.74503E-19
 1.12390E+03 3.74013E-19
 1.18522E+03 3.72222E-19
 1.25000E+03 3.69649E-19
 1.31807E+03 3.66381E-19
 1.38997E+03 3.62457E-19
 1.40000E+03 3.61880E-19
 1.46580E+03 3.57943E-19
 1.50000E+03 3.55816E-19
 1.54577E+03 3.52900E-19
 1.63010E+03 3.47385E-19
 1.71903E+03 3.41451E-19
 1.75000E+03 3.39373E-19
 1.81281E+03 3.35154E-19
 1.91171E+03 3.28538E-19
 2.00000E+03 3.22695E-19
 2.01600E+03 3.21645E-19
 2.20000E+03 3.09822E-19
 2.50000E+03 2.91763E-19
 3.00000E+03 2.65389E-19
 3.50000E+03 2.43165E-19
 4.00000E+03 2.24462E-19
 4.50000E+03 2.08493E-19
 5.00000E+03 1.95011E-19
 5.50000E+03 1.83330E-19
 6.00000E+03 1.73024E-19
 7.00000E+03 1.55762E-19
 8.00000E+03 1.41862E-19
 9.00000E+03 1.30440E-19
 1.00000E+04 1.20843E-19
 1.10000E+04 1.12710E-19
 1.25000E+04 1.02561E-19
 1.40000E+04 9.42406E-20
 1.50000E+04 8.94889E-20
 1.75000E+04 7.96769E-20
 2.00000E+04 7.20343E-20
 2.20000E+04 6.70304E-20
 2.50000E+04 6.08415E-20
 3.00000E+04 5.30252E-20
 3.50000E+04 4.72252E-20
 4.00000E+04 4.27537E-20
 4.50000E+04 3.91996E-20
 5.00000E+04 3.63017E-20
 5.50000E+04 3.38867E-20
 6.00000E+04 3.18446E-20
 7.00000E+04 2.85817E-20
 8.00000E+04 2.60884E-20
 9.00000E+04 2.41195E-20
 1.00000E+05 2.25252E-20
 1.10000E+05 2.12082E-20
 1.25000E+05 1.96134E-20
 1.40000E+05 1.83504E-20
 1.50000E+05 1.76455E-20
 1.75000E+05 1.62311E-20
 2.00000E+05 1.51696E-20
 2.20000E+05 1.44963E-20
 2.50000E+05 1.36937E-20
 3.00000E+05 1.27290E-20
 3.50000E+05 1.20602E-20
 4.00000E+05 1.15775E-20
 4.50000E+05 1.12189E-20
 5.00000E+05 1.09469E-20
 5.50000E+05 1.07376E-20
 6.00000E+05 1.05748E-20
 7.00000E+05 1.03472E-20
 8.00000E+05 1.02071E-20
 9.00000E+05 1.01231E-20
 1.00000E+06 1.00765E-20
 1.10000E+06 1.00556E-20
 1.25000E+06 1.00565E-20
 1.40000E+06 1.00824E-20
 1.50000E+06 1.01087E-20
 1.75000E+06 1.01934E-20
 2.00000E+06 1.02926E-20
 2.20000E+06 1.03764E-20
 2.50000E+06 1.05037E-20
 3.00000E+06 1.07110E-20
 3.50000E+06 1.09062E-20
 4.00000E+06 1.10876E-20
 4.50000E+06 1.12557E-20
 5.00000E+06 1.14119E-20
 5.50000E+06 1.15569E-20
 6.00000E+06 1.16924E-20
 7.00000E+06 1.19384E-20
 8.00000E+06 1.21567E-20
 9.00000E+06 1.23527E-20
 1.00000E+07 1.25304E-20
 1.10000E+07 1.26930E-20
 1.25000E+07 1.29129E-20
 1.40000E+07 1.31099E-20
 1.50000E+07 1.32304E-20
 1.75000E+07 1.35014E-20
 2.00000E+07 1.37380E-20
 2.20000E+07 1.39076E-20
 2.50000E+07 1.41360E-20
 3.00000E+07 1.44632E-20
 3.50000E+07 1.47411E-20
 4.00000E+07 1.49825E-20
 4.50000E+07 1.51959E-20
 5.00000E+07 1.53870E-20
 5.50000E+07 1.55603E-20
 6.00000E+07 1.57185E-20
 7.00000E+07 1.59992E-20
 8.00000E+07 1.62428E-20
 9.00000E+07 1.64578E-20
 1.00000E+08 1.66505E-20
 1.10000E+08 1.68244E-20
 1.25000E+08 1.70586E-20
 1.40000E+08 1.72659E-20
 1.50000E+08 1.73920E-20
 1.75000E+08 1.76746E-20
 2.00000E+08 1.79193E-20
 2.20000E+08 1.80941E-20
 2.50000E+08 1.83286E-20
 3.00000E+08 1.86631E-20
 3.50000E+08 1.89452E-20
 4.00000E+08 1.91914E-20
 4.50000E+08 1.94076E-20
 5.00000E+08 1.96010E-20
 5.50000E+08 1.97759E-20
 6.00000E+08 1.99357E-20
 7.00000E+08 2.02187E-20
 8.00000E+08 2.04639E-20
 9.00000E+08 2.06802E-20
 1.00000E+09 2.08737E-20
 *** Positron ionisation cross sections,  IZ =  1,  NSHELL =  1,  NDATA = 210
 1.00000E+01 0.00000E+00
 1.10000E+01 0.00000E+00
 1.25000E+01 0.00000E+00
 1.36000E+01 0.00000E+00
 1.36000E+01 0.00000E+00
 1.40000E+01 8.57618E-23
 1.50000E+01 4.09598E-21
 1.63200E+01 5.37551E-20
 1.64461E+01 6.44877E-20
 1.65731E+01 7.68752E-20
 1.67011E+01 9.10988E-20
 1.68301E+01 1.07351E-19
 1.69601E+01 1.25835E-19
 1.70911E+01 1.46766E-19
 1.72231E+01 1.70368E-19
 1.73562E+01 1.96877E-19
 1.75000E+01 2.28821E-19
 1.76253E+01 2.59612E-19
 1.77615E+01 2.96359E-19
 1.78987E+01 3.37053E-19
 1.80369E+01 3.81979E-19
 1.81763E+01 4.31427E-19
 1.83166E+01 4.85693E-19
 1.84581E+01 5.45082E-19
 1.86007E+01 6.09904E-19
 1.87444E+01 6.80473E-19
 1.88892E+01 7.57109E-19
 1.90351E+01 8.40133E-19
 1.91821E+01 9.29870E-19
 1.93303E+01 1.02665E-18
 1.94796E+01 1.13079E-18
 1.96301E+01 1.24262E-18
 1.97817E+01 1.36248E-18
 1.99345E+01 1.49067E-18
 2.00000E+01 1.54795E-18
 2.00885E+01 1.62753E-18
 2.02436E+01 1.77336E-18
 2.04000E+01 1.92847E-18
 2.15129E+01 3.52662E-18
 2.20000E+01 4.43800E-18
 2.26866E+01 5.93478E-18
 2.39242E+01 9.14482E-18
 2.50000E+01 1.23056E-17
 2.52294E+01 1.30106E-17
 2.66058E+01 1.73944E-17
 2.80573E+01 2.22352E-17
 2.95879E+01 2.74552E-17
 3.00000E+01 2.88563E-17
 3.12021E+01 3.28906E-17
 3.29043E+01 3.83907E-17
 3.46994E+01 4.38270E-17
 3.50000E+01 4.46942E-17
 3.65924E+01 4.90652E-17
 3.85887E+01 5.40009E-17
 4.00000E+01 5.71273E-17
 4.06939E+01 5.85549E-17
 4.29140E+01 6.26520E-17
 4.50000E+01 6.58910E-17
 4.77241E+01 6.93395E-17
 5.00000E+01 7.16285E-17
 5.30733E+01 7.39854E-17
 5.50000E+01 7.50995E-17
 5.59687E+01 7.55680E-17
 5.90220E+01 7.66859E-17
 6.00000E+01 7.69397E-17
 6.22420E+01 7.73587E-17
 6.56376E+01 7.76317E-17
 6.92184E+01 7.75411E-17
 7.00000E+01 7.74786E-17
 7.29946E+01 7.71221E-17
 7.69769E+01 7.64145E-17
 8.00000E+01 7.57420E-17
 8.11763E+01 7.54552E-17
 8.56049E+01 7.42771E-17
 9.00000E+01 7.29942E-17
 9.52000E+01 7.13875E-17
 1.00000E+02 6.98615E-17
 1.10000E+02 6.66725E-17
 1.25000E+02 6.20861E-17
 1.40000E+02 5.78834E-17
 1.50000E+02 5.53463E-17
 1.75000E+02 4.97637E-17
 2.00000E+02 4.51356E-17
 2.20000E+02 4.19802E-17
 2.50000E+02 3.79155E-17
 3.00000E+02 3.27110E-17
 3.50000E+02 2.88051E-17
 4.00000E+02 2.57738E-17
 4.50000E+02 2.33436E-17
 5.00000E+02 2.13503E-17
 5.50000E+02 1.96882E-17
 6.00000E+02 1.82771E-17
 7.00000E+02 1.60101E-17
 8.00000E+02 1.42646E-17
 9.00000E+02 1.28800E-17
 1.00000E+03 1.17525E-17
 1.10000E+03 1.08130E-17
 1.25000E+03 9.66768E-18
 1.40000E+03 8.75440E-18
 1.50000E+03 8.23941E-18
 1.75000E+03 7.19225E-18
 2.00000E+03 6.39181E-18
 2.20000E+03 5.87510E-18
 2.50000E+03 5.24646E-18
 3.00000E+03 4.46343E-18
 3.50000E+03 3.89269E-18
 4.00000E+03 3.45738E-18
 4.50000E+03 3.11392E-18
 5.00000E+03 2.83570E-18
 5.50000E+03 2.60554E-18
 6.00000E+03 2.41185E-18
 7.00000E+03 2.10359E-18
 8.00000E+03 1.86889E-18
 9.00000E+03 1.68399E-18
 1.00000E+04 1.53440E-18
 1.10000E+04 1.41079E-18
 1.25000E+04 1.26084E-18
 1.40000E+04 1.14167E-18
 1.50000E+04 1.07489E-18
 1.75000E+04 9.39963E-19
 2.00000E+04 8.37436E-19
 2.20000E+04 7.71532E-19
 2.50000E+04 6.91686E-19
 3.00000E+04 5.92829E-19
 3.50000E+04 5.21241E-19
 4.00000E+04 4.66942E-19
 4.50000E+04 4.24310E-19
 5.00000E+04 3.89932E-19
 5.50000E+04 3.61609E-19
 6.00000E+04 3.37866E-19
 7.00000E+04 3.00277E-19
 8.00000E+04 2.71853E-19
 9.00000E+04 2.49605E-19
 1.00000E+05 2.31719E-19
 1.10000E+05 2.17028E-19
 1.25000E+05 1.99342E-19
 1.40000E+05 1.85414E-19
 1.50000E+05 1.77666E-19
 1.75000E+05 1.62177E-19
 2.00000E+05 1.50590E-19
 2.20000E+05 1.43250E-19
 2.50000E+05 1.34497E-19
 3.00000E+05 1.23949E-19
 3.50000E+05 1.16583E-19
 4.00000E+05 1.11206E-19
 4.50000E+05 1.07154E-19
 5.00000E+05 1.04023E-19
 5.50000E+05 1.01558E-19
 6.00000E+05 9.95886E-20
 7.00000E+05 9.66956E-20
 8.00000E+05 9.47418E-20
 9.00000E+05 9.33958E-20
 1.00000E+06 9.24603E-20
 1.10000E+06 9.18120E-20
 1.25000E+06 9.12082E-20
 1.40000E+06 9.09012E-20
 1.50000E+06 9.08088E-20
 1.75000E+06 9.08329E-20
 2.00000E+06 9.10809E-20
 2.20000E+06 9.13694E-20
 2.50000E+06 9.18847E-20
 3.00000E+06 9.28362E-20
 3.50000E+06 9.38057E-20
 4.00000E+06 9.47459E-20
 4.50000E+06 9.56404E-20
 5.00000E+06 9.64853E-20
 5.50000E+06 9.72791E-20
 6.00000E+06 9.80279E-20
 7.00000E+06 9.94002E-20
 8.00000E+06 1.00629E-19
 9.00000E+06 1.01740E-19
 1.00000E+07 1.02750E-19
 1.10000E+07 1.03676E-19
 1.25000E+07 1.04932E-19
 1.40000E+07 1.06060E-19
 1.50000E+07 1.06750E-19
 1.75000E+07 1.08309E-19
 2.00000E+07 1.09668E-19
 2.20000E+07 1.10645E-19
 2.50000E+07 1.11961E-19
 3.00000E+07 1.13848E-19
 3.50000E+07 1.15451E-19
 4.00000E+07 1.16843E-19
 4.50000E+07 1.18076E-19
 5.00000E+07 1.19177E-19
 5.50000E+07 1.20179E-19
 6.00000E+07 1.21092E-19
 7.00000E+07 1.22713E-19
 8.00000E+07 1.24118E-19
 9.00000E+07 1.25363E-19
 1.00000E+08 1.26473E-19
 1.10000E+08 1.27479E-19
 1.25000E+08 1.28831E-19
 1.40000E+08 1.30030E-19
 1.50000E+08 1.30756E-19
 1.75000E+08 1.32387E-19
 2.00000E+08 1.33800E-19
 2.20000E+08 1.34813E-19
 2.50000E+08 1.36166E-19
 3.00000E+08 1.38097E-19
 3.50000E+08 1.39732E-19
 4.00000E+08 1.41149E-19
 4.50000E+08 1.42399E-19
 5.00000E+08 1.43517E-19
 5.50000E+08 1.44528E-19
 6.00000E+08 1.45451E-19
 7.00000E+08 1.47087E-19
 8.00000E+08 1.48504E-19
 9.00000E+08 1.49754E-19
 1.00000E+09 1.50873E-19
 *** Positron ionisation cross sections,  IZ =  5,  NSHELL =  1,  NDATA = 202
 4.00000E+01 0.00000E+00
 4.50000E+01 0.00000E+00
 5.00000E+01 0.00000E+00
 5.50000E+01 0.00000E+00
 6.00000E+01 0.00000E+00
 7.00000E+01 0.00000E+00
 8.00000E+01 0.00000E+00
 9.00000E+01 0.00000E+00
 1.00000E+02 0.00000E+00
 1.10000E+02 0.00000E+00
 1.25000E+02 0.00000E+00
 1.40000E+02 0.00000E+00
 1.50000E+02 0.00000E+00
 1.75000E+02 0.00000E+00
 1.92000E+02 0.00000E+00
 1.92000E+02 0.00000E+00
 2.00000E+02 5.82114E-23
 2.01600E+02 9.13526E-23
 2.04095E+02 1.67168E-22
 2.06621E+02 2.81661E-22
 2.09177E+02 4.45850E-22
 2.11766E+02 6.71832E-22
 2.14387E+02 9.72608E-22
 2.17040E+02 1.36190E-21
 2.20000E+02 1.91023E-21
 2.22445E+02 2.46347E-21
 2.25197E+02 3.20516E-21
 2.27984E+02 4.09385E-21
 2.30806E+02 5.14418E-21
 2.33662E+02 6.37048E-21
 2.36553E+02 7.78663E-21
 2.39481E+02 9.40593E-21
 2.42444E+02 1.12410E-20
 2.45445E+02 1.33036E-20
 2.48482E+02 1.56048E-20
 2.50000E+02 1.68356E-20
 2.51557E+02 1.81545E-20
 2.54670E+02 2.09617E-20
 2.57822E+02 2.40345E-20
 2.61012E+02 2.73797E-20
 2.64242E+02 3.10031E-20
 2.67512E+02 3.49095E-20
 2.70823E+02 3.91023E-20
 2.74174E+02 4.35841E-20
 2.77567E+02 4.83563E-20
 2.81002E+02 5.34192E-20
 2.84480E+02 5.87721E-20
 2.88000E+02 6.44134E-20
 3.00000E+02 8.41833E-20
 3.03712E+02 9.08209E-20
 3.20281E+02 1.22898E-19
 3.37754E+02 1.59556E-19
 3.50000E+02 1.85970E-19
 3.56180E+02 1.99368E-19
 3.75611E+02 2.41353E-19
 3.96103E+02 2.84987E-19
 4.00000E+02 2.93185E-19
 4.17712E+02 3.29813E-19
 4.40500E+02 3.74995E-19
 4.50000E+02 3.93077E-19
 4.64532E+02 4.19828E-19
 4.89874E+02 4.63777E-19
 5.00000E+02 4.80329E-19
 5.16599E+02 5.06178E-19
 5.44782E+02 5.46411E-19
 5.50000E+02 5.53363E-19
 5.74503E+02 5.84005E-19
 6.00000E+02 6.12538E-19
 6.05845E+02 6.18620E-19
 6.38896E+02 6.50003E-19
 6.73751E+02 6.78005E-19
 7.00000E+02 6.95982E-19
 7.10508E+02 7.02472E-19
 7.49270E+02 7.23174E-19
 7.90146E+02 7.40265E-19
 8.00000E+02 7.43767E-19
 8.33252E+02 7.53955E-19
 8.78710E+02 7.64185E-19
 9.00000E+02 7.67728E-19
 9.26648E+02 7.71204E-19
 9.77201E+02 7.75157E-19
 1.00000E+03 7.75922E-19
 1.03051E+03 7.76103E-19
 1.08673E+03 7.74360E-19
 1.10000E+03 7.73620E-19
 1.14602E+03 7.70222E-19
 1.20854E+03 7.63824E-19
 1.25000E+03 7.58672E-19
 1.27447E+03 7.55360E-19
 1.34400E+03 7.45088E-19
 1.40000E+03 7.36129E-19
 1.50000E+03 7.19206E-19
 1.75000E+03 6.75233E-19
 2.00000E+03 6.32182E-19
 2.20000E+03 6.00224E-19
 2.50000E+03 5.57090E-19
 3.00000E+03 4.96617E-19
 3.50000E+03 4.46336E-19
 4.00000E+03 4.05560E-19
 4.50000E+03 3.72136E-19
 5.00000E+03 3.44108E-19
 5.50000E+03 3.20399E-19
 6.00000E+03 2.99997E-19
 7.00000E+03 2.66644E-19
 8.00000E+03 2.40541E-19
 9.00000E+03 2.19531E-19
 1.00000E+04 2.02178E-19
 1.10000E+04 1.87642E-19
 1.25000E+04 1.69697E-19
 1.40000E+04 1.55232E-19
 1.50000E+04 1.47006E-19
 1.75000E+04 1.30170E-19
 2.00000E+04 1.17203E-19
 2.20000E+04 1.08761E-19
 2.50000E+04 9.83756E-20
 3.00000E+04 8.53842E-20
 3.50000E+04 7.58249E-20
 4.00000E+04 6.84840E-20
 4.50000E+04 6.26596E-20
 5.00000E+04 5.79306E-20
 5.50000E+04 5.40076E-20
 6.00000E+04 5.06987E-20
 7.00000E+04 4.54218E-20
 8.00000E+04 4.13984E-20
 9.00000E+04 3.82280E-20
 1.00000E+05 3.56657E-20
 1.10000E+05 3.35515E-20
 1.25000E+05 3.09950E-20
 1.40000E+05 2.89728E-20
 1.50000E+05 2.78453E-20
 1.75000E+05 2.55849E-20
 2.00000E+05 2.38901E-20
 2.20000E+05 2.28154E-20
 2.50000E+05 2.15349E-20
 3.00000E+05 1.99958E-20
 3.50000E+05 1.89283E-20
 4.00000E+05 1.81568E-20
 4.50000E+05 1.75829E-20
 5.00000E+05 1.71468E-20
 5.50000E+05 1.68101E-20
 6.00000E+05 1.65477E-20
 7.00000E+05 1.61781E-20
 8.00000E+05 1.59477E-20
 9.00000E+05 1.58066E-20
 1.00000E+06 1.57251E-20
 1.10000E+06 1.56847E-20
 1.25000E+06 1.56756E-20
 1.40000E+06 1.57069E-20
 1.50000E+06 1.57423E-20
 1.75000E+06 1.58619E-20
 2.00000E+06 1.60057E-20
 2.20000E+06 1.61285E-20
 2.50000E+06 1.63164E-20
 3.00000E+06 1.66243E-20
 3.50000E+06 1.69155E-20
 4.00000E+06 1.71868E-20
 4.50000E+06 1.74387E-20
 5.00000E+06 1.76726E-20
 5.50000E+06 1.78904E-20
 6.00000E+06 1.80938E-20
 7.00000E+06 1.84633E-20
 8.00000E+06 1.87916E-20
 9.00000E+06 1.90865E-20
 1.00000E+07 1.93539E-20
 1.10000E+07 1.95983E-20
 1.25000E+07 1.99293E-20
 1.40000E+07 2.02256E-20
 1.50000E+07 2.04072E-20
 1.75000E+07 2.08154E-20
 2.00000E+07 2.11714E-20
 2.20000E+07 2.14267E-20
 2.50000E+07 2.17709E-20
 3.00000E+07 2.22636E-20
 3.50000E+07 2.26822E-20
 4.00000E+07 2.30455E-20
 4.50000E+07 2.33670E-20
 5.00000E+07 2.36549E-20
 5.50000E+07 2.39157E-20
 6.00000E+07 2.41538E-20
 7.00000E+07 2.45773E-20
 8.00000E+07 2.49435E-20
 9.00000E+07 2.52678E-20
 1.00000E+08 2.55574E-20
 1.10000E+08 2.58201E-20
 1.25000E+08 2.61725E-20
 1.40000E+08 2.64847E-20
 1.50000E+08 2.66748E-20
 1.75000E+08 2.71004E-20
 2.00000E+08 2.74690E-20
 2.20000E+08 2.77322E-20
 2.50000E+08 2.80861E-20
 3.00000E+08 2.85882E-20
 3.50000E+08 2.90153E-20
 4.00000E+08 2.93835E-20
 4.50000E+08 2.97092E-20
 5.00000E+08 3.00005E-20
 5.50000E+08 3.02640E-20
 6.00000E+08 3.05046E-20
 7.00000E+08 3.09310E-20
 8.00000E+08 3.13003E-20
 9.00000E+08 3.16261E-20
 1.00000E+09 3.19175E-20
 *** Positron ionisation cross sections,  IZ =  6,  NSHELL =  1,  NDATA = 200
 4.00000E+01 0.00000E+00
 4.50000E+01 0.00000E+00
 5.00000E+01 0.00000E+00
 5.50000E+01 0.00000E+00
 6.00000E+01 0.00000E+00
 7.00000E+01 0.00000E+00
 8.00000E+01 0.00000E+00
 9.00000E+01 0.00000E+00
 1.00000E+02 0.00000E+00
 1.10000E+02 0.00000E+00
 1.25000E+02 0.00000E+00
 1.40000E+02 0.00000E+00
 1.50000E+02 0.00000E+00
 1.75000E+02 0.00000E+00
 2.00000E+02 0.00000E+00
 2.20000E+02 0.00000E+00
 2.50000E+02 0.00000E+00
 2.88000E+02 0.00000E+00
 2.88000E+02 0.00000E+00
 3.00000E+02 4.58360E-23
 3.02400E+02 6.82600E-23
 3.06142E+02 1.16717E-22
 3.09931E+02 1.86015E-22
 3.13766E+02 2.81128E-22
 3.17649E+02 4.07414E-22
 3.21580E+02 5.70543E-22
 3.25560E+02 7.76439E-22
 3.29588E+02 1.03120E-21
 3.33667E+02 1.34106E-21
 3.37796E+02 1.71226E-21
 3.41976E+02 2.15106E-21
 3.46208E+02 2.66364E-21
 3.50000E+02 3.18403E-21
 3.54830E+02 3.93410E-21
 3.59221E+02 4.70347E-21
 3.63667E+02 5.56950E-21
 3.68167E+02 6.53721E-21
 3.72723E+02 7.61132E-21
 3.77336E+02 8.79614E-21
 3.82005E+02 1.00956E-20
 3.86733E+02 1.15132E-20
 3.91518E+02 1.30520E-20
 3.96363E+02 1.47146E-20
 4.00000E+02 1.60307E-20
 4.01268E+02 1.65033E-20
 4.06234E+02 1.84198E-20
 4.11261E+02 2.04653E-20
 4.16351E+02 2.26406E-20
 4.21503E+02 2.49462E-20
 4.26719E+02 2.73820E-20
 4.32000E+02 2.99475E-20
 4.50000E+02 3.90370E-20
 4.55568E+02 4.20693E-20
 4.80421E+02 5.66346E-20
 5.00000E+02 6.89624E-20
 5.06631E+02 7.32417E-20
 5.34270E+02 9.13690E-20
 5.50000E+02 1.01750E-19
 5.63417E+02 1.10574E-19
 5.94154E+02 1.30546E-19
 6.00000E+02 1.34290E-19
 6.26568E+02 1.50987E-19
 6.60750E+02 1.71531E-19
 7.00000E+02 1.93656E-19
 7.34811E+02 2.11927E-19
 7.74899E+02 2.31252E-19
 8.00000E+02 2.42375E-19
 8.17173E+02 2.49548E-19
 8.61754E+02 2.66567E-19
 9.00000E+02 2.79459E-19
 9.08767E+02 2.82206E-19
