 PENELOPE (v. 2014)  Material data file ...............
 Material:                 Cu_B_Ba_0.6_0.1_0.1                           
 Mass density = 2.88241484E+00 g/cm**3
 Number of elements in the molecule =  5
   atomic number =  1,  atoms/molecule = 1.00000000E+00
   atomic number =  6,  atoms/molecule = 4.99982168E-01
   atomic number = 29,  atoms/molecule = 3.31091767E-01
   atomic number =  5,  atoms/molecule = 3.24354168E-01
   atomic number = 56,  atoms/molecule = 2.55340633E-02
 Mean excitation energy = 1.90994763E+02 eV
 Number of oscillators = 26 (E/P inelastic model)
   1  2.35518673E+00  0.00000000E+00  1.26788829E+01   0  30
   2  4.31091767E+00  1.17486755E+01  3.27614922E+01   0  30
   3  1.15316872E+00  1.66001856E+01  4.58803099E+01   0  30
   4  5.10681266E-02  3.10000000E+01  8.48931625E+01  56  30
   5  1.98655060E+00  8.06666667E+01  2.20968600E+02  29  30
   6  1.53204380E-01  9.20000000E+01  2.51914214E+02  56  14
   7  1.02136253E-01  9.40000000E+01  2.57385501E+02  56  13
   8  6.62183535E-01  1.27000000E+02  3.47775366E+02  29   5
   9  1.02136253E-01  1.81000000E+02  4.95591300E+02  56  12
  10  6.48708336E-01  1.92000000E+02  5.25733209E+02   5   1
  11  5.10681266E-02  1.93000000E+02  5.28445381E+02  56  11
  12  5.10681266E-02  2.54000000E+02  6.95465755E+02  56  10
  13  9.99964336E-01  2.88000000E+02  7.88586553E+02   6   1
  14  1.53204380E-01  7.82000000E+02  2.14115483E+03  56   9
  15  1.02136253E-01  7.97000000E+02  2.18222498E+03  56   8
  16  1.32436707E+00  9.38000000E+02  2.56830036E+03  29   4
  17  6.62183535E-01  9.58000000E+02  2.62305532E+03  29   3
  18  1.02136253E-01  1.06300000E+03  2.91054537E+03  56   7
  19  6.62183535E-01  1.10300000E+03  3.02007147E+03  29   2
  20  5.10681266E-02  1.13800000E+03  3.11589852E+03  56   6
  21  5.10681266E-02  1.29300000E+03  3.54029584E+03  56   5
  22  1.02136253E-01  5.24900000E+03  1.43720119E+04  56   4
  23  5.10681266E-02  5.62600000E+03  1.54042557E+04  56   3
  24  5.10681266E-02  5.99100000E+03  1.64036431E+04  56   2
  25  6.62183535E-01  8.98600000E+03  2.46040961E+04  29   1
  26  5.10681266E-02  3.74420000E+04  1.02517977E+05  56   1
 Number of shells = 26 (Compton IA model)
   1  2.35518673E+00  0.00000000E+00  1.04863742E+00   0  30
   2  4.31091767E+00  1.17486755E+01  5.64506105E-01   0  30
   3  1.15316872E+00  1.66001856E+01  7.58350025E-01   0  30
   4  5.10681266E-02  3.10000000E+01  6.56664000E-01  56  30
   5  1.98655060E+00  8.06666667E+01  1.94746333E-01  29  30
   6  1.53204380E-01  9.20000000E+01  1.38808000E-01  56  14
   7  1.02136253E-01  9.40000000E+01  1.37126000E-01  56  13
   8  6.62183535E-01  1.27000000E+02  3.10672000E-01  29   5
   9  1.02136253E-01  1.81000000E+02  1.69190000E-01  56  12
  10  6.48708336E-01  1.92000000E+02  1.85913000E-01   5   1
  11  5.10681266E-02  1.93000000E+02  1.63411000E-01  56  11
  12  5.10681266E-02  2.54000000E+02  2.54611000E-01  56  10
  13  9.99964336E-01  2.88000000E+02  1.53080000E-01   6   1
  14  1.53204380E-01  7.82000000E+02  4.81299000E-02  56   9
  15  1.02136253E-01  7.97000000E+02  4.75400000E-02  56   8
  16  1.32436707E+00  9.38000000E+02  5.69789000E-02  29   4
  17  6.62183535E-01  9.58000000E+02  5.61903000E-02  29   3
  18  1.02136253E-01  1.06300000E+03  7.17763000E-02  56   7
  19  6.62183535E-01  1.10300000E+03  1.10809000E-01  29   2
  20  5.10681266E-02  1.13800000E+03  6.91882000E-02  56   6
  21  5.10681266E-02  1.29300000E+03  1.16783000E-01  56   5
  22  1.02136253E-01  5.24900000E+03  2.67887000E-02  56   4
  23  5.10681266E-02  5.62600000E+03  2.53745000E-02  56   3
  24  5.10681266E-02  5.99100000E+03  5.11661000E-02  56   2
  25  6.62183535E-01  8.98600000E+03  2.95096000E-02  29   1
  26  5.10681266E-02  3.74420000E+04  1.43158000E-02  56   1
 *** RELAX:  Z =  1,  no. of shells =  1,  no. of transitions =    0
   1 1s1/2 1  1.36000E+01  0.00000E+00  8.48807E-01
 *** RELAX:  Z =  6,  no. of shells =  3,  no. of transitions =    8
   1 1s1/2 2  2.88000E+02  6.14394E-02  1.53080E-01
   2 2s1/2 2  1.65900E+01  0.00000E+00  8.03154E-01
   3 2p1/2 2  1.12600E+01  0.00000E+00  4.88373E-01
   1  3  0  5.61488E-04  2.77000E+02
   1  4  0  1.12060E-03  2.77000E+02
   1  2  2  4.13609E-01  2.55890E+02
   1  2  3  1.36190E-01  2.64460E+02
   1  2  4  2.71099E-01  2.64470E+02
   1  3  3  4.20748E-03  2.73030E+02
   1  3  4  1.10012E-01  2.73040E+02
   1  4  4  6.32008E-02  2.73050E+02
 *** RELAX:  Z = 29,  no. of shells = 10,  no. of transitions =  158
   1 1s1/2 2  8.98600E+03  1.49000E+00  2.95096E-02
   2 2s1/2 2  1.10300E+03  5.50000E+00  1.10809E-01
   3 2p1/2 2  9.58000E+02  1.04000E+00  5.61903E-02
   4 2p3/2 4  9.38000E+02  6.10000E-01  5.69789E-02
   5 3s1/2 2  1.27000E+02  2.20000E+00  3.10672E-01
   6 3p1/2 2  8.20000E+01  1.90000E+00  1.92987E-01
   7 3p3/2 4  8.00000E+01  1.80000E+00  1.95626E-01
   8 3d3/2 4  1.10000E+01  0.00000E+00  1.85026E-01
   9 3d5/2 6  1.04000E+01  0.00000E+00  1.87154E-01
  10 4s1/2 1  7.72600E+00  0.00000E+00  1.60814E+00
   1  3  0  1.31119E-01  8.02784E+03
   1  4  0  2.55668E-01  8.04782E+03
   1  6  0  1.58899E-02  8.90541E+03
   1  7  0  3.10908E-02  8.90541E+03
   1  8  0  1.79389E-05  8.97714E+03
   1  9  0  2.59348E-05  8.97714E+03
   1  2  2  3.88567E-02  6.77100E+03
   1  2  3  4.31908E-02  6.89857E+03
   1  2  4  7.68383E-02  6.91961E+03
   1  2  5  1.04073E-02  7.73584E+03
   1  2  6  5.57458E-03  7.77660E+03
   1  2  7  9.82486E-03  7.77924E+03
   1  2  8  2.80672E-04  7.84701E+03
   1  2  9  3.81309E-04  7.84730E+03
   1  2 10  3.54221E-04  7.84999E+03
   1  3  3  7.65781E-03  7.02614E+03
   1  3  4  1.81191E-01  7.04718E+03
   1  3  5  4.90291E-03  7.86341E+03
   1  3  6  1.85044E-03  7.90417E+03
   1  3  7  1.99826E-02  7.90681E+03
   1  3  8  3.89071E-04  7.97458E+03
   1  3  9  1.43235E-03  7.97487E+03
   1  3 10  1.62596E-04  7.97756E+03
   1  4  4  1.00194E-01  7.06822E+03
   1  4  5  8.76108E-03  7.88445E+03
   1  4  6  2.00201E-02  7.92521E+03
   1  4  7  2.24684E-02  7.92785E+03
   1  4  8  1.77886E-03  7.99562E+03
   1  4  9  1.73429E-03  7.99591E+03
   1  4 10  2.92272E-04  7.99860E+03
   1  5  5  7.62703E-04  8.70068E+03
   1  5  6  7.04830E-04  8.74144E+03
   1  5  7  1.24470E-03  8.74408E+03
   1  5  8  3.21362E-05  8.81185E+03
   1  5  9  4.49905E-05  8.81214E+03
   1  5 10  5.14183E-05  8.81483E+03
   1  6  6  1.20557E-04  8.78220E+03
   1  6  7  2.52309E-03  8.78484E+03
   1  6  8  3.72645E-05  8.85261E+03
   1  6  9  1.46859E-04  8.85290E+03
   1  6 10  2.41126E-05  8.85559E+03
   1  7  7  1.52046E-03  8.78748E+03
   1  7  8  1.96192E-04  8.85525E+03
   1  7  9  1.86855E-04  8.85554E+03
   1  7 10  4.43756E-05  8.85823E+03
   1  8  9  1.10707E-05  8.92331E+03
   1  8 10  2.21424E-06  8.92600E+03
   1  9  9  4.12417E-06  8.92360E+03
   1  9 10  4.12417E-06  8.92629E+03
   2  3  0  1.91460E-05  1.27570E+02
   2  4  0  8.71820E-05  1.48610E+02
   2  6  0  6.88360E-04  1.02279E+03
   2  7  0  1.06520E-03  1.02279E+03
   2  8  0  2.60100E-06  1.09270E+03
   2  9  0  3.42210E-06  1.09300E+03
   2  3  8  4.64820E-02  1.17480E+02
   2  3  9  7.46387E-02  1.17770E+02
   2  3 10  1.99240E-03  1.20460E+02
   2  4  6  5.88771E-02  6.81100E+01
   2  4  7  1.25939E-01  7.07500E+01
   2  4  8  1.14171E-01  1.38520E+02
   2  4  9  1.62177E-01  1.38810E+02
   2  4 10  3.56746E-03  1.41500E+02
   2  5  5  1.12747E-02  8.43580E+02
   2  5  6  2.04284E-02  8.84340E+02
   2  5  7  3.97086E-02  8.86980E+02
   2  5  8  2.10300E-02  9.54750E+02
   2  5  9  3.08047E-02  9.55040E+02
   2  5 10  6.83622E-04  9.57730E+02
   2  6  6  3.03846E-04  9.25100E+02
   2  6  7  6.94692E-04  9.27740E+02
   2  6  8  3.37886E-04  9.95510E+02
   2  6  9  6.64782E-03  9.95800E+02
   2  6 10  5.86257E-04  9.98490E+02
   2  7  7  1.07698E-03  9.30380E+02
   2  7  8  7.13355E-03  9.98150E+02
   2  7  9  5.09460E-03  9.98440E+02
   2  7 10  1.18286E-03  1.00113E+03
   2  8  8  5.63180E-04  1.06592E+03
   2  8  9  2.86944E-02  1.06621E+03
   2  8 10  5.17393E-04  1.06890E+03
   2  9  9  8.31045E-03  1.06650E+03
   2  9 10  8.00352E-04  1.06919E+03
   3  5  0  4.65603E-03  8.32100E+02
   3  7  0  1.62541E-05  8.78500E+02
   3  8  0  4.42993E-03  9.49840E+02
   3 10  0  1.20891E-04  9.51420E+02
   3  5  5  3.62933E-03  7.16010E+02
   3  5  6  6.68802E-02  7.56770E+02
   3  5  7  5.61858E-03  7.59410E+02
   3  5  8  3.11852E-03  8.27180E+02
   3  5  9  6.83737E-03  8.27470E+02
   3  5 10  2.10585E-04  8.30160E+02
   3  6  6  5.77499E-02  7.97530E+02
   3  6  7  1.98084E-01  8.00170E+02
   3  6  8  6.92466E-02  8.67940E+02
   3  6  9  1.31715E-01  8.68230E+02
   3  6 10  2.26721E-03  8.70920E+02
   3  7  7  5.52451E-03  8.02810E+02
   3  7  8  8.26916E-02  8.70580E+02
   3  7  9  1.22043E-02  8.70870E+02
   3  7 10  1.70255E-04  8.73560E+02
   3  8  8  5.84943E-02  9.38350E+02
   3  8  9  2.65016E-01  9.38640E+02
   3  8 10  1.12427E-04  9.41330E+02
   3  9  9  1.20386E-02  9.38930E+02
   3  9 10  2.19538E-04  9.41620E+02
   4  5  0  4.33818E-03  8.11080E+02
   4  6  0  8.20307E-06  8.55800E+02
   4  7  0  7.94827E-06  8.58800E+02
   4  8  0  3.70919E-04  9.29680E+02
   4  9  0  3.97209E-03  9.29680E+02
   4 10  0  1.06190E-04  9.30380E+02
   4  5  5  3.73446E-03  6.94970E+02
   4  5  6  2.60360E-03  7.35730E+02
   4  5  7  6.94080E-02  7.38370E+02
   4  5  8  4.66601E-03  8.06140E+02
   4  5  9  5.73035E-03  8.06430E+02
   4  5 10  2.17322E-04  8.09120E+02
   4  6  6  9.75756E-04  7.76490E+02
   4  6  7  1.05475E-01  7.79130E+02
   4  6  8  4.55055E-03  8.46900E+02
   4  6  9  4.33586E-02  8.47190E+02
   4  6 10  7.98344E-05  8.49880E+02
   4  7  7  1.54845E-01  7.81770E+02
   4  7  8  1.01637E-01  8.49540E+02
   4  7  9  1.52475E-01  8.49830E+02
   4  7 10  2.34172E-03  8.52520E+02
   4  8  8  9.71767E-03  9.17310E+02
   4  8  9  1.96561E-01  9.17600E+02
   4  8 10  1.50793E-04  9.20290E+02
   4  9  9  1.32479E-01  9.17890E+02
   4  9 10  1.90728E-04  9.20580E+02
   5  8  8  3.64835E-03  1.01080E+02
   5  8  9  5.39118E-02  1.01370E+02
   5  8 10  1.58988E-02  1.04060E+02
   5  9  9  2.70922E-02  1.01660E+02
   5  9 10  3.43707E-02  1.04350E+02
   6  8  0  1.91500E-05  7.04100E+01
   6 10  0  2.33800E-06  7.33900E+01
   6  8  8  1.53632E-01  6.03200E+01
   6  8  9  7.98786E-01  6.06100E+01
   6  8 10  1.91501E-02  6.33000E+01
   6  9  9  2.43355E-02  6.09000E+01
   6  9 10  4.07449E-03  6.35900E+01
   7  8  0  1.74600E-06  6.77700E+01
   7  9  0  1.59670E-05  6.80600E+01
   7 10  0  9.55071E-07  7.07500E+01
   7  8  8  2.35524E-02  5.76800E+01
   7  8  9  5.54813E-01  5.79700E+01
   7  8 10  4.32518E-03  6.06600E+01
   7  9  9  3.96490E-01  5.82600E+01
   7  9 10  2.08001E-02  6.09500E+01
   2 30 30  2.24416E-01  3.84504E+01
   3 30  0  5.18584E-10  2.10400E+01
   3 30 30  8.94776E-03  1.39300E+01
   5 30  0  2.82323E-05  4.26355E+01
   5 30 30  8.65050E-01  3.28258E+01
 *** RELAX:  Z =  5,  no. of shells =  3,  no. of transitions =    2
   1 1s1/2 2  1.92000E+02  0.00000E+00  1.85913E-01
   2 2s1/2 2  1.13860E+01  0.00000E+00  1.00114E+00
   3 2p1/2 1  1.13860E+01  0.00000E+00  6.14623E-01
   1  3  0  5.70000E-04  1.83300E+02
   1  3  3  9.99430E-01  1.69000E+02
 *** RELAX:  Z = 56,  no. of shells = 18,  no. of transitions =  903
   1 1s1/2 2  3.74420E+04  1.32000E+01  1.43158E-02
   2 2s1/2 2  5.99100E+03  2.10000E+00  5.11661E-02
   3 2p1/2 2  5.62600E+03  3.25000E+00  2.53745E-02
   4 2p3/2 4  5.24900E+03  3.02000E+00  2.67887E-02
   5 3s1/2 2  1.29300E+03  1.11000E+01  1.16783E-01
   6 3p1/2 2  1.13800E+03  3.90000E+00  6.91882E-02
   7 3p3/2 4  1.06300E+03  5.40000E+00  7.17763E-02
   8 3d3/2 4  7.97000E+02  6.70000E-01  4.75400E-02
   9 3d5/2 6  7.82000E+02  6.70000E-01  4.81299E-02
  10 4s1/2 2  2.54000E+02  3.10000E+00  2.54611E-01
  11 4p1/2 2  1.93000E+02  5.00000E+00  1.63411E-01
  12 4p3/2 4  1.81000E+02  1.30000E+00  1.69190E-01
  13 4d3/2 4  9.40000E+01  8.00000E-02  1.37126E-01
  14 4d5/2 6  9.20000E+01  8.00000E-02  1.38808E-01
  17 5s1/2 2  3.10000E+01  6.44097E-01  6.56664E-01
  18 5p1/2 2  1.80000E+01  0.00000E+00  4.52228E-01
  19 5p3/2 4  1.60000E+01  0.00000E+00  4.72758E-01
  24 6s1/2 2  5.21000E+00  0.00000E+00  2.23455E+00
   1  3  0  2.59109E-01  3.18166E+04
   1  4  0  4.77119E-01  3.21933E+04
   1  6  0  4.55999E-02  3.63033E+04
   1  7  0  8.83548E-02  3.63774E+04
   1  8  0  4.94539E-04  3.66432E+04
   1  9  0  6.71248E-04  3.66660E+04
   1 11  0  9.63368E-03  3.72448E+04
   1 12  0  1.87670E-02  3.72607E+04
   1 13  0  1.00470E-04  3.73468E+04
   1 14  0  1.36260E-04  3.73495E+04
   1 18  0  1.35170E-03  3.74247E+04
   1 19  0  2.59259E-03  3.74270E+04
   1  2  2  7.85623E-03  2.55274E+04
   1  2  3  9.44683E-03  2.58579E+04
   1  2  4  1.08677E-02  2.62448E+04
   1  2  5  2.83874E-03  3.02148E+04
   1  2  6  1.83216E-03  3.03560E+04
   1  2  7  2.13946E-03  3.04312E+04
   1  2  8  1.42074E-04  3.06816E+04
   1  2  9  1.51393E-04  3.06977E+04
   1  2 10  6.31250E-04  3.12319E+04
   1  2 11  3.86661E-04  3.12840E+04
   1  2 12  4.49615E-04  3.12999E+04
   1  2 13  2.79586E-05  3.13860E+04
   1  2 14  2.96152E-05  3.13887E+04
   1  2 17  1.05825E-04  3.14498E+04
   1  2 18  5.32253E-05  3.14639E+04
   1  2 19  6.02669E-05  3.14662E+04
   1  2 24  9.94079E-06  3.14836E+04
   1  3  3  1.09947E-03  2.61884E+04
   1  3  4  2.29213E-02  2.65753E+04
   1  3  5  1.42036E-03  3.05453E+04
   1  3  6  3.81066E-04  3.06865E+04
   1  3  7  3.76445E-03  3.07617E+04
   1  3  8  1.67334E-04  3.10121E+04
   1  3  9  5.54213E-04  3.10282E+04
   1  3 10  3.04026E-04  3.15624E+04
   1  3 11  7.89044E-05  3.16145E+04
   1  3 12  7.64613E-04  3.16304E+04
   1  3 13  3.23084E-05  3.17165E+04
   1  3 14  1.06871E-04  3.17192E+04
   1  3 17  5.05333E-05  3.17803E+04
   1  3 18  1.07691E-05  3.17944E+04
   1  3 19  1.01899E-04  3.17967E+04
   1  3 24  4.76342E-06  3.18141E+04
   1  4  4  1.13338E-02  2.69622E+04
   1  4  5  1.59121E-03  3.09322E+04
   1  4  6  3.65831E-03  3.10734E+04
   1  4  7  3.82427E-03  3.11486E+04
   1  4  8  6.56313E-04  3.13990E+04
   1  4  9  6.00196E-04  3.14151E+04
   1  4 10  3.38618E-04  3.19493E+04
   1  4 11  7.44958E-04  3.20014E+04
   1  4 12  7.81598E-04  3.20173E+04
   1  4 13  1.27160E-04  3.21034E+04
   1  4 14  1.15976E-04  3.21061E+04
   1  4 17  5.63322E-05  3.21672E+04
   1  4 18  1.01685E-04  3.21813E+04
   1  4 19  1.04176E-04  3.21836E+04
   1  4 24  5.38481E-06  3.22010E+04
   1  5  5  2.52661E-04  3.49022E+04
   1  5  6  2.77920E-04  3.50434E+04
   1  5  7  3.15828E-04  3.51186E+04
   1  5  8  1.98821E-05  3.53690E+04
   1  5  9  2.05033E-05  3.53851E+04
   1  5 10  1.12045E-04  3.59193E+04
   1  5 11  5.88162E-05  3.59714E+04
   1  5 12  6.64790E-05  3.59873E+04
   1  5 13  3.93482E-06  3.60734E+04
   1  5 14  3.93482E-06  3.60761E+04
   1  5 17  1.88457E-05  3.61372E+04
   1  5 18  8.07673E-06  3.61513E+04
   1  5 19  8.90562E-06  3.61536E+04
   1  5 24  1.86397E-06  3.61710E+04
   1  6  6  3.18932E-05  3.51846E+04
   1  6  7  6.11364E-04  3.52598E+04
   1  6  8  2.13321E-05  3.55102E+04
   1  6  9  6.91724E-05  3.55263E+04
   1  6 10  5.96458E-05  3.60605E+04
   1  6 11  1.30469E-05  3.61126E+04
   1  6 12  1.24462E-04  3.61285E+04
   1  6 13  4.14207E-06  3.62146E+04
   1  6 14  1.34612E-05  3.62173E+04
   1  6 17  9.94080E-06  3.62784E+04
   1  6 18  1.86401E-06  3.62925E+04
   1  6 19  1.65683E-05  3.62948E+04
   1  6 24  1.03550E-06  3.63122E+04
   1  7  7  3.23912E-04  3.53350E+04
   1  7  8  8.80222E-05  3.55854E+04
   1  7  9  7.84927E-05  3.56015E+04
   1  7 10  6.73084E-05  3.61357E+04
   1  7 11  1.24882E-04  3.61878E+04
   1  7 12  1.32550E-04  3.62037E+04
   1  7 13  1.71905E-05  3.62898E+04
   1  7 14  1.53257E-05  3.62925E+04
   1  7 17  1.11832E-05  3.63536E+04
   1  7 18  1.69823E-05  3.63677E+04
   1  7 19  1.76036E-05  3.63700E+04
   1  7 24  1.03549E-06  3.63874E+04
   1  8  9  1.02672E-05  3.58519E+04
   1  8 10  4.10694E-06  3.63860E+04
   1  8 11  4.10694E-06  3.64382E+04
   1  8 12  1.70447E-05  3.64540E+04
   1  8 14  1.84820E-06  3.65429E+04
   1  8 17  6.16038E-07  3.66040E+04
   1  8 18  6.16038E-07  3.66181E+04
   1  8 19  2.25885E-06  3.66204E+04
   1  9  9  2.49469E-06  3.58680E+04
   1  9 10  4.36558E-06  3.64022E+04
   1  9 11  1.35123E-05  3.64543E+04
   1  9 12  1.53840E-05  3.64702E+04
   1  9 13  1.87110E-06  3.65563E+04
   1  9 14  8.31545E-07  3.65591E+04
   1  9 17  6.23669E-07  3.66201E+04
   1  9 18  1.87110E-06  3.66342E+04
   1  9 19  2.07886E-06  3.66365E+04
   1 10 10  1.18938E-05  3.69363E+04
   1 10 11  1.20930E-05  3.69884E+04
   1 10 12  1.36778E-05  3.70043E+04
   1 10 13  7.92938E-07  3.70905E+04
   1 10 14  7.92938E-07  3.70932E+04
   1 10 17  3.96477E-06  3.71543E+04
   1 10 18  1.58591E-06  3.71683E+04
   1 10 19  1.78422E-06  3.71707E+04
   1 10 24  3.96477E-07  3.71880E+04
   1 11 11  1.16070E-06  3.70406E+04
   1 11 12  2.37952E-05  3.70564E+04
   1 11 13  7.73815E-07  3.71426E+04
   1 11 14  2.51493E-06  3.71453E+04
   1 11 17  1.93453E-06  3.72064E+04
   1 11 18  3.86916E-07  3.72205E+04
   1 11 19  3.09533E-06  3.72228E+04
   1 11 24  1.93453E-07  3.72402E+04
   1 12 12  1.25701E-05  3.70723E+04
   1 12 13  3.09430E-06  3.71585E+04
   1 12 14  2.70747E-06  3.71612E+04
   1 12 17  2.12736E-06  3.72223E+04
   1 12 18  3.28767E-06  3.72363E+04
   1 12 19  3.28767E-06  3.72387E+04
   1 12 24  1.93389E-07  3.72560E+04
   1 13 14  3.82369E-07  3.72474E+04
   1 13 17  1.91180E-07  3.73084E+04
   1 13 18  1.91180E-07  3.73225E+04
   1 13 19  3.82369E-07  3.73248E+04
   1 14 17  1.78722E-07  3.73112E+04
   1 14 18  3.57453E-07  3.73252E+04
   1 14 19  3.57453E-07  3.73275E+04
   1 17 17  3.66589E-07  3.73722E+04
   1 17 18  1.83290E-07  3.73863E+04
   1 17 19  3.66589E-07  3.73886E+04
   1 18 19  5.19969E-07  3.74027E+04
   1 19 19  2.07100E-07  3.74050E+04
   2  3  0  1.97370E-05  3.30500E+02
   2  4  0  4.42920E-04  7.17400E+02
   2  6  0  1.55720E-02  4.85197E+03
   2  7  0  2.40990E-02  4.92697E+03
   2  8  0  2.50490E-04  5.19428E+03
   2  9  0  3.74210E-04  5.21723E+03
   2 11  0  3.49930E-03  5.75659E+03
   2 12  0  5.58689E-03  5.77245E+03
   2 13  0  3.25660E-05  5.85864E+03
   2 14  0  4.97069E-05  5.86134E+03
   2 18  0  5.18289E-04  5.93650E+03
   2 19  0  8.16269E-04  5.93880E+03
   2  3 10  5.57124E-02  7.41500E+01
   2  3 11  4.04804E-02  1.26290E+02
   2  3 12  5.06575E-02  1.42150E+02
   2  3 13  1.33451E-02  2.28340E+02
   2  3 14  2.18252E-02  2.31040E+02
   2  3 17  8.98827E-03  2.92110E+02
   2  3 18  5.22511E-03  3.06200E+02
   2  3 19  6.38480E-03  3.08500E+02
   2  3 24  8.41018E-04  3.25860E+02
   2  4 10  7.07979E-02  4.61050E+02
   2  4 11  3.08656E-02  5.13190E+02
   2  4 12  5.73873E-02  5.29050E+02
   2  4 13  6.46915E-02  6.15240E+02
   2  4 14  8.27825E-02  6.17940E+02
   2  4 17  1.14543E-02  6.79010E+02
   2  4 18  4.07566E-03  6.93100E+02
   2  4 19  7.48044E-03  6.95400E+02
   2  4 24  1.07444E-03  7.12760E+02
   2  5  5  1.29622E-02  3.41400E+03
   2  5  6  2.57908E-02  3.55520E+03
   2  5  7  4.73012E-02  3.63040E+03
   2  5  8  3.71605E-02  3.88076E+03
   2  5  9  5.22324E-02  3.89691E+03
   2  5 10  4.91106E-03  4.43105E+03
   2  5 11  5.32797E-03  4.48319E+03
   2  5 12  9.70585E-03  4.49905E+03
   2  5 13  6.21191E-03  4.58524E+03
   2  5 14  8.69169E-03  4.58794E+03
   2  5 17  8.04634E-04  4.64901E+03
   2  5 18  7.28863E-04  4.66310E+03
   2  5 19  1.29481E-03  4.66540E+03
   2  5 24  7.57661E-05  4.68276E+03
   2  6  6  1.38651E-04  3.69640E+03
   2  6  7  9.09944E-04  3.77160E+03
   2  6  8  1.10846E-03  4.02196E+03
   2  6  9  1.39173E-02  4.03811E+03
   2  6 10  3.91410E-03  4.57225E+03
   2  6 11  2.87904E-05  4.62439E+03
   2  6 12  1.77289E-04  4.64025E+03
   2  6 13  1.84870E-04  4.72644E+03
   2  6 14  1.54485E-03  4.72914E+03
   2  6 17  6.10672E-04  4.79021E+03
   2  6 18  3.78818E-06  4.80430E+03
   2  6 19  2.34876E-05  4.80660E+03
   2  6 24  5.68238E-05  4.82396E+03
   2  7  7  1.10233E-03  3.84680E+03
   2  7  8  9.19572E-03  4.09716E+03
   2  7  9  6.20753E-03  4.11331E+03
   2  7 10  7.17261E-03  4.64745E+03
   2  7 11  1.77289E-04  4.69959E+03
   2  7 12  3.43211E-04  4.71545E+03
   2  7 13  8.69798E-04  4.80164E+03
   2  7 14  6.07638E-04  4.80434E+03
   2  7 17  1.11911E-03  4.86541E+03
   2  7 18  2.42447E-05  4.87950E+03
   2  7 19  4.39427E-05  4.88180E+03
   2  7 24  1.04550E-04  4.89916E+03
   2  8  8  2.06463E-03  4.34752E+03
   2  8  9  7.42418E-02  4.36367E+03
   2  8 10  5.33082E-03  4.89781E+03
   2  8 11  2.95491E-04  4.94995E+03
   2  8 12  1.92515E-03  4.96581E+03
   2  8 13  6.82661E-04  5.05200E+03
   2  8 14  9.08294E-03  5.05470E+03
   2  8 17  8.25089E-04  5.11577E+03
   2  8 18  4.24293E-05  5.12986E+03
   2  8 19  2.57604E-04  5.13216E+03
   2  8 24  7.72824E-05  5.14952E+03
   2  9  9  2.08633E-02  4.37982E+03
   2  9 10  7.54033E-03  4.91396E+03
   2  9 11  2.62075E-03  4.96610E+03
   2  9 12  1.36384E-03  4.98196E+03
   2  9 13  8.97546E-03  5.06815E+03
   2  9 14  5.33780E-03  5.07085E+03
   2  9 17  1.16914E-03  5.13192E+03
   2  9 18  3.53072E-04  5.14601E+03
   2  9 19  1.84112E-04  5.14831E+03
   2  9 24  1.09101E-04  5.16567E+03
   2 10 10  4.41722E-04  5.44810E+03
   2 10 11  8.10686E-04  5.50024E+03
   2 10 12  1.47519E-03  5.51610E+03
   2 10 13  8.89491E-04  5.60229E+03
   2 10 14  1.24936E-03  5.60499E+03
   2 10 17  1.43201E-04  5.66606E+03
   2 10 18  1.10616E-04  5.68015E+03
   2 10 19  1.96993E-04  5.68245E+03
   2 10 24  1.36382E-05  5.69981E+03
   2 11 11  1.51525E-06  5.55238E+03
   2 11 12  3.48529E-05  5.56824E+03
   2 11 13  4.16720E-05  5.65443E+03
   2 11 14  3.00028E-04  5.65713E+03
   2 11 17  1.26532E-04  5.71820E+03
   2 11 19  4.54587E-06  5.73459E+03
   2 11 24  1.21231E-05  5.75195E+03
   2 12 12  2.58158E-05  5.58410E+03
   2 12 13  1.88821E-04  5.67029E+03
   2 12 14  1.37188E-04  5.67299E+03
   2 12 17  2.24238E-04  5.73406E+03
   2 12 18  4.42542E-06  5.74815E+03
   2 12 19  6.63838E-06  5.75045E+03
   2 12 24  2.06525E-05  5.76781E+03
   2 13 13  5.28210E-05  5.75648E+03
   2 13 14  1.16812E-03  5.75918E+03
   2 13 17  1.36583E-04  5.82025E+03
   2 13 18  6.03707E-06  5.83434E+03
   2 13 19  2.64115E-05  5.83664E+03
   2 13 24  1.28293E-05  5.85400E+03
   2 14 14  3.56108E-04  5.76188E+03
   2 14 17  1.91164E-04  5.82295E+03
   2 14 18  4.04833E-05  5.83704E+03
   2 14 19  1.87419E-05  5.83934E+03
   2 14 24  1.79927E-05  5.85670E+03
   2 17 17  9.01847E-06  5.88402E+03
   2 17 18  1.38281E-05  5.89811E+03
   2 17 19  2.46497E-05  5.90041E+03
   2 17 24  1.80369E-06  5.91777E+03
   2 18 19  7.57667E-07  5.91450E+03
   2 18 24  1.51523E-06  5.93186E+03
   2 19 19  1.84745E-07  5.91680E+03
   2 19 24  7.38954E-07  5.93416E+03
   3  4  0  1.07649E-07  3.86900E+02
   3  5  0  4.24138E-03  4.33096E+03
   3  7  0  6.51076E-05  4.56090E+03
   3  8  0  8.52395E-02  4.82758E+03
   3 10  0  6.48217E-04  5.37395E+03
   3 12  0  9.31455E-06  5.44195E+03
   3 13  0  1.37659E-02  5.52814E+03
   3 17  0  8.75435E-05  5.59191E+03
   3 19  0  1.36159E-06  5.60830E+03
   3  4 10  1.10656E-02  1.30550E+02
   3  4 11  5.11170E-02  1.82690E+02
   3  4 12  1.74845E-02  1.98550E+02
   3  4 13  6.50700E-02  2.84740E+02
   3  4 14  2.40504E-02  2.87440E+02
   3  4 17  1.67076E-03  3.48510E+02
   3  4 18  6.63611E-03  3.62600E+02
   3  4 19  2.30963E-03  3.64900E+02
   3  4 24  1.55059E-04  3.82260E+02
   3  5  5  1.00467E-03  3.08350E+03
   3  5  6  2.47231E-02  3.22470E+03
   3  5  7  2.37952E-03  3.29990E+03
   3  5  8  1.97445E-03  3.55026E+03
   3  5  9  3.29193E-03  3.56641E+03
   3  5 10  3.53125E-04  4.10055E+03
   3  5 11  3.50619E-03  4.15269E+03
   3  5 12  4.33787E-04  4.16855E+03
   3  5 13  2.37499E-04  4.25474E+03
   3  5 14  3.43283E-04  4.25744E+03
   3  5 17  5.64649E-05  4.31851E+03
   3  5 18  4.49929E-04  4.33260E+03
   3  5 19  5.64649E-05  4.33490E+03
   3  5 24  5.37738E-06  4.35226E+03
   3  6  6  2.43875E-02  3.36590E+03
   3  6  7  7.54066E-02  3.44110E+03
   3  6  8  4.00999E-02  3.69146E+03
   3  6  9  6.79915E-02  3.70761E+03
   3  6 10  5.60228E-03  4.24175E+03
   3  6 11  8.63248E-03  4.29389E+03
   3  6 12  1.52043E-02  4.30975E+03
   3  6 13  6.68956E-03  4.39594E+03
   3  6 14  1.13357E-02  4.39864E+03
   3  6 17  9.42882E-04  4.45971E+03
   3  6 18  1.15521E-03  4.47380E+03
   3  6 19  2.02190E-03  4.47610E+03
   3  6 24  8.87290E-05  4.49346E+03
   3  7  7  1.96548E-03  3.51630E+03
   3  7  8  4.67709E-02  3.76666E+03
   3  7  9  6.35725E-03  3.78281E+03
   3  7 10  4.62476E-04  4.31695E+03
   3  7 11  1.10814E-02  4.36909E+03
   3  7 12  6.70405E-04  4.38495E+03
   3  7 13  6.70576E-03  4.47114E+03
   3  7 14  8.54133E-04  4.47384E+03
   3  7 17  7.52848E-05  4.53491E+03
   3  7 18  1.43038E-03  4.54900E+03
   3  7 19  8.69349E-05  4.55130E+03
   3  7 24  7.17021E-06  4.56866E+03
   3  8  8  4.27161E-02  4.01702E+03
   3  8  9  1.82488E-01  4.03317E+03
   3  8 10  4.57986E-04  4.56731E+03
   3  8 11  5.86884E-03  4.61945E+03
   3  8 12  8.88972E-03  4.63531E+03
   3  8 13  1.22085E-02  4.72150E+03
   3  8 14  2.79031E-02  4.72420E+03
   3  8 17  7.70771E-05  4.78527E+03
   3  8 18  7.61804E-04  4.79936E+03
   3  8 19  1.17053E-03  4.80166E+03
   3  8 24  7.17019E-06  4.81902E+03
   3  9  9  8.71064E-03  4.04932E+03
   3  9 10  6.28291E-04  4.58346E+03
   3  9 11  8.87992E-03  4.63560E+03
   3  9 12  1.10683E-03  4.65146E+03
   3  9 13  2.21326E-02  4.73765E+03
   3  9 14  2.42792E-03  4.74035E+03
   3  9 17  1.02169E-04  4.80142E+03
   3  9 18  1.12213E-03  4.81551E+03
   3  9 19  1.43401E-04  4.81781E+03
   3  9 24  9.85925E-06  4.83517E+03
   3 10 10  3.08128E-05  5.11760E+03
   3 10 11  8.06591E-04  5.16974E+03
   3 10 12  8.60933E-05  5.18560E+03
   3 10 13  5.34681E-05  5.27179E+03
   3 10 14  6.79693E-05  5.27449E+03
   3 10 17  9.96929E-06  5.33556E+03
   3 10 18  1.03310E-04  5.34965E+03
   3 10 19  1.08743E-05  5.35195E+03
   3 10 24  9.06268E-07  5.36931E+03
   3 11 11  6.82120E-04  5.22188E+03
   3 11 12  2.08475E-03  5.23774E+03
   3 11 13  8.99494E-04  5.32393E+03
   3 11 14  1.39099E-03  5.32663E+03
   3 11 17  1.25385E-04  5.38770E+03
   3 11 18  1.81395E-04  5.40179E+03
   3 11 19  2.77533E-04  5.40409E+03
   3 11 24  1.17032E-05  5.42145E+03
   3 12 12  5.59748E-05  5.25360E+03
   3 12 13  1.25500E-03  5.33979E+03
   3 12 14  1.49562E-04  5.34249E+03
   3 12 17  1.39937E-05  5.40356E+03
   3 12 18  2.81613E-04  5.41765E+03
   3 12 19  1.48687E-05  5.41995E+03
   3 12 24  8.74614E-07  5.43731E+03
   3 13 13  8.61810E-04  5.42598E+03
   3 13 14  3.48579E-03  5.42868E+03
   3 13 17  8.94931E-06  5.48975E+03
   3 13 18  1.24396E-04  5.50384E+03
   3 13 19  1.69134E-04  5.50614E+03
   3 13 24  8.94931E-07  5.52350E+03
   3 14 14  1.76094E-04  5.43138E+03
   3 14 17  1.11213E-05  5.49245E+03
   3 14 18  1.95566E-04  5.50654E+03
   3 14 19  2.03902E-05  5.50884E+03
   3 14 24  9.26854E-07  5.52620E+03
   3 17 17  9.07216E-07  5.55352E+03
   3 17 18  1.72363E-05  5.56761E+03
   3 17 19  1.81439E-06  5.56991E+03
   3 18 18  1.37559E-05  5.58170E+03
   3 18 19  4.22517E-05  5.58400E+03
   3 18 24  1.96507E-06  5.60136E+03
   4  5  0  7.71684E-03  3.95415E+03
   4  6  0  4.42513E-05  4.11110E+03
   4  7  0  4.10792E-05  4.18460E+03
   4  8  0  8.38245E-03  4.45094E+03
   4  9  0  7.42514E-02  4.46630E+03
   4 10  0  7.43294E-04  4.98705E+03
   4 11  0  4.49883E-06  5.03919E+03
   4 12  0  4.33302E-06  5.05505E+03
   4 13  0  1.31391E-03  5.14124E+03
   4 14  0  1.17411E-02  5.14394E+03
   4 17  0  1.16221E-04  5.20501E+03
   4 18  0  6.62344E-07  5.21910E+03
   4 19  0  6.29994E-07  5.22140E+03
   4  5  5  1.32476E-03  2.69660E+03
   4  5  6  9.07829E-04  2.83780E+03
   4  5  7  2.86375E-02  2.91300E+03
   4  5  8  2.81587E-03  3.16336E+03
   4  5  9  3.23474E-03  3.17951E+03
   4  5 10  4.67515E-04  3.71365E+03
   4  5 11  1.54544E-04  3.76579E+03
   4  5 12  4.06109E-03  3.78165E+03
   4  5 13  2.52714E-04  3.86784E+03
   4  5 14  2.67292E-04  3.87054E+03
   4  5 17  7.48425E-05  3.93161E+03
   4  5 18  2.04113E-05  3.94570E+03
   4  5 19  5.09311E-04  3.94800E+03
   4  5 24  6.80378E-06  3.96536E+03
   4  6  6  2.89651E-04  2.97900E+03
   4  6  7  4.76627E-02  3.05420E+03
   4  6  8  3.03160E-03  3.30456E+03
   4  6  9  2.72625E-02  3.32071E+03
   4  6 10  1.72045E-04  3.85485E+03
   4  6 11  1.00113E-04  3.90699E+03
   4  6 12  7.00024E-03  3.92285E+03
   4  6 13  4.71405E-04  4.00904E+03
   4  6 14  3.67599E-03  4.01174E+03
   4  6 17  2.81879E-05  4.07281E+03
   4  6 18  1.36076E-05  4.08690E+03
   4  6 19  8.82555E-04  4.08920E+03
   4  6 24  2.91597E-06  4.10656E+03
   4  7  7  6.64652E-02  3.12940E+03
   4  7  8  6.70973E-02  3.37976E+03
   4  7  9  1.00166E-01  3.39591E+03
   4  7 10  6.42000E-03  3.93005E+03
   4  7 11  9.44380E-03  3.98219E+03
   4  7 12  2.31157E-02  3.99805E+03
   4  7 13  1.07766E-02  4.08424E+03
   4  7 14  1.59039E-02  4.08694E+03
   4  7 17  1.07797E-03  4.14801E+03
   4  7 18  1.28402E-03  4.16210E+03
   4  7 19  3.00919E-03  4.16440E+03
   4  7 24  1.02061E-04  4.18176E+03
   4  8  8  9.62934E-03  3.63012E+03
   4  8  9  1.84674E-01  3.64627E+03
   4  8 10  5.93880E-04  4.18041E+03
   4  8 11  5.99706E-04  4.23255E+03
   4  8 12  9.19103E-03  4.24841E+03
   4  8 13  2.74878E-03  4.33460E+03
   4  8 14  2.26892E-02  4.33730E+03
   4  8 17  9.81665E-05  4.39837E+03
   4  8 18  8.16458E-05  4.41246E+03
   4  8 19  1.14601E-03  4.41476E+03
   4  8 24  9.71986E-06  4.43212E+03
   4  9  9  1.25081E-01  3.66242E+03
   4  9 10  7.23191E-04  4.19656E+03
   4  9 11  5.02640E-03  4.24870E+03
   4  9 12  1.53258E-02  4.26456E+03
   4  9 13  2.66381E-02  4.35075E+03
   4  9 14  3.42446E-02  4.35345E+03
   4  9 17  1.21502E-04  4.41452E+03
   4  9 18  6.74578E-04  4.42861E+03
   4  9 19  1.95468E-03  4.43091E+03
   4  9 24  1.16643E-05  4.44827E+03
   4 10 10  4.13006E-05  4.73070E+03
   4 10 11  3.04851E-05  4.78284E+03
   4 10 12  9.23375E-04  4.79870E+03
   4 10 13  5.80195E-05  4.88489E+03
   4 10 14  6.49030E-05  4.88759E+03
