 PENELOPE (v. 2014)  Material data file ...............
 Material:                 Cu_B_0.36_0.44                                
 Mass density = 2.32695133E+00 g/cm**3
 Number of elements in the molecule =  4
   atomic number =  1,  atoms/molecule = 7.00693100E-01
   atomic number =  6,  atoms/molecule = 3.50334055E-01
   atomic number = 29,  atoms/molecule = 1.39196230E-01
   atomic number =  5,  atoms/molecule = 1.00000000E+00
 Mean excitation energy = 1.15919513E+02 eV
 Number of oscillators = 13 (E/P inelastic model)
   1  3.83986434E+00  0.00000000E+00  1.73771178E+01   0  30
   2  1.39196230E+00  1.13860000E+01  3.34820106E+01   5  30
   3  7.00693100E-01  1.36000000E+01  3.91410962E+01   1  30
   4  7.00668110E-01  1.65900000E+01  4.75582546E+01   6  30
   5  5.56784920E-01  8.00000000E+01  2.27528798E+02  29   7
   6  2.78392460E-01  8.20000000E+01  2.33182557E+02  29   6
   7  2.78392460E-01  1.27000000E+02  3.61120330E+02  29   5
   8  2.00000000E+00  1.92000000E+02  5.46011169E+02   5   1
   9  7.00668110E-01  2.88000000E+02  8.18895144E+02   6   1
  10  5.56784920E-01  9.38000000E+02  2.66702841E+03  29   4
  11  2.78392460E-01  9.58000000E+02  2.72389178E+03  29   3
  12  2.78392460E-01  1.10300000E+03  3.13617109E+03  29   2
  13  2.78392460E-01  8.98600000E+03  2.55499663E+04  29   1
 Number of shells = 13 (Compton IA model)
   1  3.83986434E+00  0.00000000E+00  7.65118316E-01   0  30
   2  1.39196230E+00  1.13860000E+01  1.00114000E+00   5  30
   3  7.00693100E-01  1.36000000E+01  8.48807000E-01   1  30
   4  7.00668110E-01  1.65900000E+01  8.03154000E-01   6  30
   5  5.56784920E-01  8.00000000E+01  1.95626000E-01  29   7
   6  2.78392460E-01  8.20000000E+01  1.92987000E-01  29   6
   7  2.78392460E-01  1.27000000E+02  3.10672000E-01  29   5
   8  2.00000000E+00  1.92000000E+02  1.85913000E-01   5   1
   9  7.00668110E-01  2.88000000E+02  1.53080000E-01   6   1
  10  5.56784920E-01  9.38000000E+02  5.69789000E-02  29   4
  11  2.78392460E-01  9.58000000E+02  5.61903000E-02  29   3
  12  2.78392460E-01  1.10300000E+03  1.10809000E-01  29   2
  13  2.78392460E-01  8.98600000E+03  2.95096000E-02  29   1
 *** RELAX:  Z =  1,  no. of shells =  1,  no. of transitions =    0
   1 1s1/2 1  1.36000E+01  0.00000E+00  8.48807E-01
 *** RELAX:  Z =  6,  no. of shells =  3,  no. of transitions =    8
   1 1s1/2 2  2.88000E+02  6.14394E-02  1.53080E-01
   2 2s1/2 2  1.65900E+01  0.00000E+00  8.03154E-01
   3 2p1/2 2  1.12600E+01  0.00000E+00  4.88373E-01
   1  3  0  5.61488E-04  2.77000E+02
   1  4  0  1.12060E-03  2.77000E+02
   1  2  2  4.13609E-01  2.55890E+02
   1  2  3  1.36190E-01  2.64460E+02
   1  2  4  2.71099E-01  2.64470E+02
   1  3  3  4.20748E-03  2.73030E+02
   1  3  4  1.10012E-01  2.73040E+02
   1  4  4  6.32008E-02  2.73050E+02
 *** RELAX:  Z = 29,  no. of shells = 10,  no. of transitions =  158
   1 1s1/2 2  8.98600E+03  1.49000E+00  2.95096E-02
   2 2s1/2 2  1.10300E+03  5.50000E+00  1.10809E-01
   3 2p1/2 2  9.58000E+02  1.04000E+00  5.61903E-02
   4 2p3/2 4  9.38000E+02  6.10000E-01  5.69789E-02
   5 3s1/2 2  1.27000E+02  2.20000E+00  3.10672E-01
   6 3p1/2 2  8.20000E+01  1.90000E+00  1.92987E-01
   7 3p3/2 4  8.00000E+01  1.80000E+00  1.95626E-01
   8 3d3/2 4  1.10000E+01  0.00000E+00  1.85026E-01
   9 3d5/2 6  1.04000E+01  0.00000E+00  1.87154E-01
  10 4s1/2 1  7.72600E+00  0.00000E+00  1.60814E+00
   1  3  0  1.31119E-01  8.02784E+03
   1  4  0  2.55668E-01  8.04782E+03
   1  6  0  1.58899E-02  8.90541E+03
   1  7  0  3.10908E-02  8.90541E+03
   1  8  0  1.79389E-05  8.97714E+03
   1  9  0  2.59348E-05  8.97714E+03
   1  2  2  3.88567E-02  6.77100E+03
   1  2  3  4.31908E-02  6.89857E+03
   1  2  4  7.68383E-02  6.91961E+03
   1  2  5  1.04073E-02  7.73584E+03
   1  2  6  5.57458E-03  7.77660E+03
   1  2  7  9.82486E-03  7.77924E+03
   1  2  8  2.80672E-04  7.84701E+03
   1  2  9  3.81309E-04  7.84730E+03
   1  2 10  3.54221E-04  7.84999E+03
   1  3  3  7.65781E-03  7.02614E+03
   1  3  4  1.81191E-01  7.04718E+03
   1  3  5  4.90291E-03  7.86341E+03
   1  3  6  1.85044E-03  7.90417E+03
   1  3  7  1.99826E-02  7.90681E+03
   1  3  8  3.89071E-04  7.97458E+03
   1  3  9  1.43235E-03  7.97487E+03
   1  3 10  1.62596E-04  7.97756E+03
   1  4  4  1.00194E-01  7.06822E+03
   1  4  5  8.76108E-03  7.88445E+03
   1  4  6  2.00201E-02  7.92521E+03
   1  4  7  2.24684E-02  7.92785E+03
   1  4  8  1.77886E-03  7.99562E+03
   1  4  9  1.73429E-03  7.99591E+03
   1  4 10  2.92272E-04  7.99860E+03
   1  5  5  7.62703E-04  8.70068E+03
   1  5  6  7.04830E-04  8.74144E+03
   1  5  7  1.24470E-03  8.74408E+03
   1  5  8  3.21362E-05  8.81185E+03
   1  5  9  4.49905E-05  8.81214E+03
   1  5 10  5.14183E-05  8.81483E+03
   1  6  6  1.20557E-04  8.78220E+03
   1  6  7  2.52309E-03  8.78484E+03
   1  6  8  3.72645E-05  8.85261E+03
   1  6  9  1.46859E-04  8.85290E+03
   1  6 10  2.41126E-05  8.85559E+03
   1  7  7  1.52046E-03  8.78748E+03
   1  7  8  1.96192E-04  8.85525E+03
   1  7  9  1.86855E-04  8.85554E+03
   1  7 10  4.43756E-05  8.85823E+03
   1  8  9  1.10707E-05  8.92331E+03
   1  8 10  2.21424E-06  8.92600E+03
   1  9  9  4.12417E-06  8.92360E+03
   1  9 10  4.12417E-06  8.92629E+03
   2  3  0  1.91460E-05  1.27570E+02
   2  4  0  8.71820E-05  1.48610E+02
   2  6  0  6.88360E-04  1.02279E+03
   2  7  0  1.06520E-03  1.02279E+03
   2  8  0  2.60100E-06  1.09270E+03
   2  9  0  3.42210E-06  1.09300E+03
   2  3  8  4.64820E-02  1.17480E+02
   2  3  9  7.46387E-02  1.17770E+02
   2  3 10  1.99240E-03  1.20460E+02
   2  4  6  5.88771E-02  6.81100E+01
   2  4  7  1.25939E-01  7.07500E+01
   2  4  8  1.14171E-01  1.38520E+02
   2  4  9  1.62177E-01  1.38810E+02
   2  4 10  3.56746E-03  1.41500E+02
   2  5  5  1.12747E-02  8.43580E+02
   2  5  6  2.04284E-02  8.84340E+02
   2  5  7  3.97086E-02  8.86980E+02
   2  5  8  2.10300E-02  9.54750E+02
   2  5  9  3.08047E-02  9.55040E+02
   2  5 10  6.83622E-04  9.57730E+02
   2  6  6  3.03846E-04  9.25100E+02
   2  6  7  6.94692E-04  9.27740E+02
   2  6  8  3.37886E-04  9.95510E+02
   2  6  9  6.64782E-03  9.95800E+02
   2  6 10  5.86257E-04  9.98490E+02
   2  7  7  1.07698E-03  9.30380E+02
   2  7  8  7.13355E-03  9.98150E+02
   2  7  9  5.09460E-03  9.98440E+02
   2  7 10  1.18286E-03  1.00113E+03
   2  8  8  5.63180E-04  1.06592E+03
   2  8  9  2.86944E-02  1.06621E+03
   2  8 10  5.17393E-04  1.06890E+03
   2  9  9  8.31045E-03  1.06650E+03
   2  9 10  8.00352E-04  1.06919E+03
   3  5  0  4.65603E-03  8.32100E+02
   3  7  0  1.62541E-05  8.78500E+02
   3  8  0  4.42993E-03  9.49840E+02
   3 10  0  1.20891E-04  9.51420E+02
   3  5  5  3.62933E-03  7.16010E+02
   3  5  6  6.68802E-02  7.56770E+02
   3  5  7  5.61858E-03  7.59410E+02
   3  5  8  3.11852E-03  8.27180E+02
   3  5  9  6.83737E-03  8.27470E+02
   3  5 10  2.10585E-04  8.30160E+02
   3  6  6  5.77499E-02  7.97530E+02
   3  6  7  1.98084E-01  8.00170E+02
   3  6  8  6.92466E-02  8.67940E+02
   3  6  9  1.31715E-01  8.68230E+02
   3  6 10  2.26721E-03  8.70920E+02
   3  7  7  5.52451E-03  8.02810E+02
   3  7  8  8.26916E-02  8.70580E+02
   3  7  9  1.22043E-02  8.70870E+02
   3  7 10  1.70255E-04  8.73560E+02
   3  8  8  5.84943E-02  9.38350E+02
   3  8  9  2.65016E-01  9.38640E+02
   3  8 10  1.12427E-04  9.41330E+02
   3  9  9  1.20386E-02  9.38930E+02
   3  9 10  2.19538E-04  9.41620E+02
   4  5  0  4.33818E-03  8.11080E+02
   4  6  0  8.20307E-06  8.55800E+02
   4  7  0  7.94827E-06  8.58800E+02
   4  8  0  3.70919E-04  9.29680E+02
   4  9  0  3.97209E-03  9.29680E+02
   4 10  0  1.06190E-04  9.30380E+02
   4  5  5  3.73446E-03  6.94970E+02
   4  5  6  2.60360E-03  7.35730E+02
   4  5  7  6.94080E-02  7.38370E+02
   4  5  8  4.66601E-03  8.06140E+02
   4  5  9  5.73035E-03  8.06430E+02
   4  5 10  2.17322E-04  8.09120E+02
   4  6  6  9.75756E-04  7.76490E+02
   4  6  7  1.05475E-01  7.79130E+02
   4  6  8  4.55055E-03  8.46900E+02
   4  6  9  4.33586E-02  8.47190E+02
   4  6 10  7.98344E-05  8.49880E+02
   4  7  7  1.54845E-01  7.81770E+02
   4  7  8  1.01637E-01  8.49540E+02
   4  7  9  1.52475E-01  8.49830E+02
   4  7 10  2.34172E-03  8.52520E+02
   4  8  8  9.71767E-03  9.17310E+02
   4  8  9  1.96561E-01  9.17600E+02
   4  8 10  1.50793E-04  9.20290E+02
   4  9  9  1.32479E-01  9.17890E+02
   4  9 10  1.90728E-04  9.20580E+02
   5  8  8  3.64835E-03  1.01080E+02
   5  8  9  5.39118E-02  1.01370E+02
   5  8 10  1.58988E-02  1.04060E+02
   5  9  9  2.70922E-02  1.01660E+02
   5  9 10  3.43707E-02  1.04350E+02
   6  8  0  1.91500E-05  7.04100E+01
   6 10  0  2.33800E-06  7.33900E+01
   6  8  8  1.53632E-01  6.03200E+01
   6  8  9  7.98786E-01  6.06100E+01
   6  8 10  1.91501E-02  6.33000E+01
   6  9  9  2.43355E-02  6.09000E+01
   6  9 10  4.07449E-03  6.35900E+01
   7  8  0  1.74600E-06  6.77700E+01
   7  9  0  1.59670E-05  6.80600E+01
   7 10  0  9.55071E-07  7.07500E+01
   7  8  8  2.35524E-02  5.76800E+01
   7  8  9  5.54813E-01  5.79700E+01
   7  8 10  4.32518E-03  6.06600E+01
   7  9  9  3.96490E-01  5.82600E+01
   7  9 10  2.08001E-02  6.09500E+01
   2 30 30  2.24416E-01  3.84504E+01
   3 30  0  5.18584E-10  2.10400E+01
   3 30 30  8.94776E-03  1.39300E+01
   5 30  0  2.82323E-05  4.26355E+01
   5 30 30  8.65050E-01  3.28258E+01
 *** RELAX:  Z =  5,  no. of shells =  3,  no. of transitions =    2
   1 1s1/2 2  1.92000E+02  0.00000E+00  1.85913E-01
   2 2s1/2 2  1.13860E+01  0.00000E+00  1.00114E+00
   3 2p1/2 1  1.13860E+01  0.00000E+00  6.14623E-01
   1  3  0  5.70000E-04  1.83300E+02
   1  3  3  9.99430E-01  1.69000E+02
 *** Electron ionisation cross sections,  IZ =  1,  NSHELL =  1,  NDATA = 211
 1.00000E+01 0.00000E+00
 1.10000E+01 0.00000E+00
 1.25000E+01 0.00000E+00
 1.36000E+01 0.00000E+00
 1.36000E+01 0.00000E+00
 1.40000E+01 6.68213E-18
 1.49600E+01 2.04927E-17
 1.50000E+01 2.10082E-17
 1.51209E+01 2.25396E-17
 1.52834E+01 2.45392E-17
 1.54478E+01 2.64923E-17
 1.56139E+01 2.84001E-17
 1.57818E+01 3.02632E-17
 1.59515E+01 3.20827E-17
 1.61230E+01 3.38594E-17
 1.62963E+01 3.55942E-17
 1.64716E+01 3.72878E-17
 1.66487E+01 3.89411E-17
 1.68277E+01 4.05549E-17
 1.70086E+01 4.21299E-17
 1.71915E+01 4.36670E-17
 1.73763E+01 4.51668E-17
 1.75000E+01 4.61411E-17
 1.75632E+01 4.66301E-17
 1.77520E+01 4.80577E-17
 1.79429E+01 4.94501E-17
 1.81358E+01 5.08081E-17
 1.83308E+01 5.21323E-17
 1.85279E+01 5.34235E-17
 1.87272E+01 5.46822E-17
 1.89285E+01 5.59090E-17
 1.91320E+01 5.71046E-17
 1.93378E+01 5.82695E-17
 1.95457E+01 5.94043E-17
 1.97559E+01 6.05097E-17
 1.99683E+01 6.15861E-17
 2.00000E+01 6.17434E-17
 2.01830E+01 6.26341E-17
 2.04000E+01 6.36542E-17
 2.15129E+01 6.83199E-17
 2.20000E+01 7.01020E-17
 2.26866E+01 7.23786E-17
 2.39242E+01 7.58740E-17
 2.50000E+01 7.83735E-17
 2.52294E+01 7.88504E-17
 2.66058E+01 8.13528E-17
 2.80573E+01 8.34258E-17
 2.95879E+01 8.51035E-17
 3.00000E+01 8.54787E-17
 3.12021E+01 8.64118E-17
 3.29043E+01 8.73763E-17
 3.46994E+01 8.80222E-17
 3.50000E+01 8.80987E-17
 3.65924E+01 8.83733E-17
 3.85887E+01 8.84532E-17
 4.00000E+01 8.83651E-17
 4.06939E+01 8.82847E-17
 4.29140E+01 8.78890E-17
 4.50000E+01 8.73588E-17
 4.77241E+01 8.64921E-17
 5.00000E+01 8.56545E-17
 5.30733E+01 8.44075E-17
 5.50000E+01 8.35789E-17
 5.59687E+01 8.31526E-17
 5.90220E+01 8.17760E-17
 6.00000E+01 8.13271E-17
 6.22420E+01 8.02905E-17
 6.56376E+01 7.87170E-17
 6.92184E+01 7.70630E-17
 7.00000E+01 7.67036E-17
 7.29946E+01 7.53374E-17
 7.69769E+01 7.35585E-17
 8.00000E+01 7.22428E-17
 8.11763E+01 7.17393E-17
 8.56049E+01 6.98868E-17
 9.00000E+01 6.81176E-17
 9.52000E+01 6.61149E-17
 1.00000E+02 6.43529E-17
 1.10000E+02 6.09386E-17
 1.25000E+02 5.64146E-17
 1.40000E+02 5.25062E-17
 1.50000E+02 5.01862E-17
 1.75000E+02 4.52174E-17
 2.00000E+02 4.11550E-17
 2.20000E+02 3.84291E-17
 2.50000E+02 3.50738E-17
 3.00000E+02 3.06388E-17
 3.50000E+02 2.72262E-17
 4.00000E+02 2.45288E-17
 4.50000E+02 2.23357E-17
 5.00000E+02 2.05169E-17
 5.50000E+02 1.89870E-17
 6.00000E+02 1.76786E-17
 7.00000E+02 1.55585E-17
 8.00000E+02 1.39113E-17
 9.00000E+02 1.25956E-17
 1.00000E+03 1.15184E-17
 1.10000E+03 1.06168E-17
 1.25000E+03 9.51299E-18
 1.40000E+03 8.62911E-18
 1.50000E+03 8.12924E-18
 1.75000E+03 7.10966E-18
 2.00000E+03 6.32749E-18
 2.20000E+03 5.82130E-18
 2.50000E+03 5.20413E-18
 3.00000E+03 4.43338E-18
 3.50000E+03 3.87020E-18
 4.00000E+03 3.43989E-18
 4.50000E+03 3.09991E-18
 5.00000E+03 2.82421E-18
 5.50000E+03 2.59595E-18
 6.00000E+03 2.40370E-18
 7.00000E+03 2.09749E-18
 8.00000E+03 1.86416E-18
 9.00000E+03 1.68019E-18
 1.00000E+04 1.53128E-18
 1.10000E+04 1.40818E-18
 1.25000E+04 1.25879E-18
 1.40000E+04 1.14001E-18
 1.50000E+04 1.07343E-18
 1.75000E+04 9.38872E-19
 2.00000E+04 8.36586E-19
 2.20000E+04 7.70819E-19
 2.50000E+04 6.91124E-19
 3.00000E+04 5.92427E-19
 3.50000E+04 5.20938E-19
 4.00000E+04 4.66704E-19
 4.50000E+04 4.24118E-19
 5.00000E+04 3.89774E-19
 5.50000E+04 3.61475E-19
 6.00000E+04 3.37751E-19
 7.00000E+04 3.00190E-19
 8.00000E+04 2.71783E-19
 9.00000E+04 2.49549E-19
 1.00000E+05 2.31671E-19
 1.10000E+05 2.16988E-19
 1.25000E+05 1.99310E-19
 1.40000E+05 1.85387E-19
 1.50000E+05 1.77642E-19
 1.75000E+05 1.62158E-19
 2.00000E+05 1.50575E-19
 2.20000E+05 1.43237E-19
 2.50000E+05 1.34487E-19
 3.00000E+05 1.23941E-19
 3.50000E+05 1.16576E-19
 4.00000E+05 1.11201E-19
 4.50000E+05 1.07149E-19
 5.00000E+05 1.04019E-19
 5.50000E+05 1.01555E-19
 6.00000E+05 9.95853E-20
 7.00000E+05 9.66928E-20
 8.00000E+05 9.47394E-20
 9.00000E+05 9.33937E-20
 1.00000E+06 9.24584E-20
 1.10000E+06 9.18103E-20
 1.25000E+06 9.12068E-20
 1.40000E+06 9.08999E-20
 1.50000E+06 9.08076E-20
 1.75000E+06 9.08318E-20
 2.00000E+06 9.10800E-20
 2.20000E+06 9.13685E-20
 2.50000E+06 9.18840E-20
 3.00000E+06 9.28356E-20
 3.50000E+06 9.38051E-20
 4.00000E+06 9.47454E-20
 4.50000E+06 9.56399E-20
 5.00000E+06 9.64849E-20
 5.50000E+06 9.72788E-20
 6.00000E+06 9.80276E-20
 7.00000E+06 9.93999E-20
 8.00000E+06 1.00629E-19
 9.00000E+06 1.01739E-19
 1.00000E+07 1.02750E-19
 1.10000E+07 1.03676E-19
 1.25000E+07 1.04932E-19
 1.40000E+07 1.06060E-19
 1.50000E+07 1.06750E-19
 1.75000E+07 1.08309E-19
 2.00000E+07 1.09668E-19
 2.20000E+07 1.10645E-19
 2.50000E+07 1.11961E-19
 3.00000E+07 1.13848E-19
 3.50000E+07 1.15451E-19
 4.00000E+07 1.16843E-19
 4.50000E+07 1.18076E-19
 5.00000E+07 1.19177E-19
 5.50000E+07 1.20178E-19
 6.00000E+07 1.21092E-19
 7.00000E+07 1.22713E-19
 8.00000E+07 1.24118E-19
 9.00000E+07 1.25363E-19
 1.00000E+08 1.26473E-19
 1.10000E+08 1.27479E-19
 1.25000E+08 1.28831E-19
 1.40000E+08 1.30030E-19
 1.50000E+08 1.30756E-19
 1.75000E+08 1.32387E-19
 2.00000E+08 1.33800E-19
 2.20000E+08 1.34813E-19
 2.50000E+08 1.36166E-19
 3.00000E+08 1.38097E-19
 3.50000E+08 1.39732E-19
 4.00000E+08 1.41149E-19
 4.50000E+08 1.42399E-19
 5.00000E+08 1.43517E-19
 5.50000E+08 1.44528E-19
 6.00000E+08 1.45451E-19
 7.00000E+08 1.47087E-19
 8.00000E+08 1.48504E-19
 9.00000E+08 1.49754E-19
 1.00000E+09 1.50873E-19
 *** Electron ionisation cross sections,  IZ =  6,  NSHELL =  1,  NDATA = 201
 4.00000E+01 0.00000E+00
 4.50000E+01 0.00000E+00
 5.00000E+01 0.00000E+00
 5.50000E+01 0.00000E+00
 6.00000E+01 0.00000E+00
 7.00000E+01 0.00000E+00
 8.00000E+01 0.00000E+00
 9.00000E+01 0.00000E+00
 1.00000E+02 0.00000E+00
 1.10000E+02 0.00000E+00
 1.25000E+02 0.00000E+00
 1.40000E+02 0.00000E+00
 1.50000E+02 0.00000E+00
 1.75000E+02 0.00000E+00
 2.00000E+02 0.00000E+00
 2.20000E+02 0.00000E+00
 2.50000E+02 0.00000E+00
 2.88000E+02 0.00000E+00
 2.88000E+02 0.00000E+00
 2.90880E+02 6.47323E-21
 2.94874E+02 1.52506E-20
 2.98924E+02 2.39164E-20
 3.00000E+02 2.61817E-20
 3.03028E+02 3.24693E-20
 3.07189E+02 4.09082E-20
 3.11408E+02 4.92320E-20
 3.15684E+02 5.74399E-20
 3.20019E+02 6.55311E-20
 3.24413E+02 7.35052E-20
 3.28868E+02 8.13616E-20
 3.33384E+02 8.91001E-20
 3.37962E+02 9.67204E-20
 3.42603E+02 1.04222E-19
 3.47307E+02 1.11606E-19
 3.50000E+02 1.15735E-19
 3.52077E+02 1.18872E-19
 3.56911E+02 1.26019E-19
 3.61812E+02 1.33049E-19
 3.66781E+02 1.39961E-19
 3.71817E+02 1.46756E-19
 3.76923E+02 1.53435E-19
 3.82099E+02 1.59997E-19
 3.87346E+02 1.66443E-19
 3.92665E+02 1.72774E-19
 3.98057E+02 1.78991E-19
 4.00000E+02 1.81183E-19
 4.03523E+02 1.85093E-19
 4.09064E+02 1.91083E-19
 4.14681E+02 1.96959E-19
 4.20376E+02 2.02724E-19
 4.26148E+02 2.08377E-19
 4.32000E+02 2.13919E-19
 4.50000E+02 2.29866E-19
 4.55568E+02 2.34498E-19
 4.80421E+02 2.53570E-19
 5.00000E+02 2.66888E-19
 5.06631E+02 2.71086E-19
 5.34270E+02 2.87060E-19
 5.50000E+02 2.95159E-19
 5.63417E+02 3.01560E-19
 5.94154E+02 3.14653E-19
 6.00000E+02 3.16917E-19
 6.26568E+02 3.26382E-19
 6.60750E+02 3.36761E-19
 7.00000E+02 3.46521E-19
 7.34811E+02 3.53527E-19
 7.74899E+02 3.59981E-19
 8.00000E+02 3.63267E-19
 8.17173E+02 3.65218E-19
 8.61754E+02 3.69289E-19
 9.00000E+02 3.71784E-19
 9.08767E+02 3.72242E-19
 9.58345E+02 3.74134E-19
 1.00000E+03 3.74923E-19
 1.01063E+03 3.75023E-19
 1.06576E+03 3.74965E-19
 1.10000E+03 3.74503E-19
 1.12390E+03 3.74013E-19
 1.18522E+03 3.72222E-19
 1.25000E+03 3.69649E-19
 1.31807E+03 3.66381E-19
 1.38997E+03 3.62457E-19
 1.40000E+03 3.61880E-19
 1.46580E+03 3.57943E-19
 1.50000E+03 3.55816E-19
 1.54577E+03 3.52900E-19
 1.63010E+03 3.47385E-19
 1.71903E+03 3.41451E-19
 1.75000E+03 3.39373E-19
 1.81281E+03 3.35154E-19
 1.91171E+03 3.28538E-19
 2.00000E+03 3.22695E-19
 2.01600E+03 3.21645E-19
 2.20000E+03 3.09822E-19
 2.50000E+03 2.91763E-19
 3.00000E+03 2.65389E-19
 3.50000E+03 2.43165E-19
 4.00000E+03 2.24462E-19
 4.50000E+03 2.08493E-19
 5.00000E+03 1.95011E-19
 5.50000E+03 1.83330E-19
 6.00000E+03 1.73024E-19
 7.00000E+03 1.55762E-19
 8.00000E+03 1.41862E-19
 9.00000E+03 1.30440E-19
 1.00000E+04 1.20843E-19
 1.10000E+04 1.12710E-19
 1.25000E+04 1.02561E-19
 1.40000E+04 9.42406E-20
 1.50000E+04 8.94889E-20
 1.75000E+04 7.96769E-20
 2.00000E+04 7.20343E-20
 2.20000E+04 6.70304E-20
 2.50000E+04 6.08415E-20
 3.00000E+04 5.30252E-20
 3.50000E+04 4.72252E-20
 4.00000E+04 4.27537E-20
 4.50000E+04 3.91996E-20
 5.00000E+04 3.63017E-20
 5.50000E+04 3.38867E-20
 6.00000E+04 3.18446E-20
 7.00000E+04 2.85817E-20
 8.00000E+04 2.60884E-20
 9.00000E+04 2.41195E-20
 1.00000E+05 2.25252E-20
 1.10000E+05 2.12082E-20
 1.25000E+05 1.96134E-20
 1.40000E+05 1.83504E-20
 1.50000E+05 1.76455E-20
 1.75000E+05 1.62311E-20
 2.00000E+05 1.51696E-20
 2.20000E+05 1.44963E-20
 2.50000E+05 1.36937E-20
 3.00000E+05 1.27290E-20
 3.50000E+05 1.20602E-20
 4.00000E+05 1.15775E-20
 4.50000E+05 1.12189E-20
 5.00000E+05 1.09469E-20
 5.50000E+05 1.07376E-20
 6.00000E+05 1.05748E-20
 7.00000E+05 1.03472E-20
 8.00000E+05 1.02071E-20
 9.00000E+05 1.01231E-20
 1.00000E+06 1.00765E-20
 1.10000E+06 1.00556E-20
 1.25000E+06 1.00565E-20
 1.40000E+06 1.00824E-20
 1.50000E+06 1.01087E-20
 1.75000E+06 1.01934E-20
 2.00000E+06 1.02926E-20
 2.20000E+06 1.03764E-20
 2.50000E+06 1.05037E-20
 3.00000E+06 1.07110E-20
 3.50000E+06 1.09062E-20
 4.00000E+06 1.10876E-20
 4.50000E+06 1.12557E-20
 5.00000E+06 1.14119E-20
 5.50000E+06 1.15569E-20
 6.00000E+06 1.16924E-20
 7.00000E+06 1.19384E-20
 8.00000E+06 1.21567E-20
 9.00000E+06 1.23527E-20
 1.00000E+07 1.25304E-20
 1.10000E+07 1.26930E-20
 1.25000E+07 1.29129E-20
 1.40000E+07 1.31099E-20
 1.50000E+07 1.32304E-20
 1.75000E+07 1.35014E-20
 2.00000E+07 1.37380E-20
 2.20000E+07 1.39076E-20
 2.50000E+07 1.41360E-20
 3.00000E+07 1.44632E-20
 3.50000E+07 1.47411E-20
 4.00000E+07 1.49825E-20
 4.50000E+07 1.51959E-20
 5.00000E+07 1.53870E-20
 5.50000E+07 1.55603E-20
 6.00000E+07 1.57185E-20
 7.00000E+07 1.59992E-20
 8.00000E+07 1.62428E-20
 9.00000E+07 1.64578E-20
 1.00000E+08 1.66505E-20
 1.10000E+08 1.68244E-20
 1.25000E+08 1.70586E-20
 1.40000E+08 1.72659E-20
 1.50000E+08 1.73920E-20
 1.75000E+08 1.76746E-20
 2.00000E+08 1.79193E-20
 2.20000E+08 1.80941E-20
 2.50000E+08 1.83286E-20
 3.00000E+08 1.86631E-20
 3.50000E+08 1.89452E-20
 4.00000E+08 1.91914E-20
 4.50000E+08 1.94076E-20
 5.00000E+08 1.96010E-20
 5.50000E+08 1.97759E-20
 6.00000E+08 1.99357E-20
 7.00000E+08 2.02187E-20
 8.00000E+08 2.04639E-20
 9.00000E+08 2.06802E-20
 1.00000E+09 2.08737E-20
 *** Electron ionisation cross sections,  IZ = 29,  NSHELL =  7,  NDATA = 473
 4.00000E+01 0.00000E+00 0.00000E+00 0.00000E+00 0.00000E+00 0.00000E+00 0.00000E+00 0.00000E+00
 4.50000E+01 0.00000E+00 0.00000E+00 0.00000E+00 0.00000E+00 0.00000E+00 0.00000E+00 0.00000E+00
 5.00000E+01 0.00000E+00 0.00000E+00 0.00000E+00 0.00000E+00 0.00000E+00 0.00000E+00 0.00000E+00
 5.50000E+01 0.00000E+00 0.00000E+00 0.00000E+00 0.00000E+00 0.00000E+00 0.00000E+00 0.00000E+00
 6.00000E+01 0.00000E+00 0.00000E+00 0.00000E+00 0.00000E+00 0.00000E+00 0.00000E+00 0.00000E+00
 7.00000E+01 0.00000E+00 0.00000E+00 0.00000E+00 0.00000E+00 0.00000E+00 0.00000E+00 0.00000E+00
 8.00000E+01 0.00000E+00 0.00000E+00 0.00000E+00 0.00000E+00 0.00000E+00 0.00000E+00 0.00000E+00
 8.00000E+01 0.00000E+00 0.00000E+00 0.00000E+00 0.00000E+00 0.00000E+00 0.00000E+00 0.00000E+00
 8.20000E+01 0.00000E+00 0.00000E+00 0.00000E+00 0.00000E+00 0.00000E+00 0.00000E+00 1.59442E-19
 8.20000E+01 0.00000E+00 0.00000E+00 0.00000E+00 0.00000E+00 0.00000E+00 0.00000E+00 1.59442E-19
 8.80000E+01 0.00000E+00 0.00000E+00 0.00000E+00 0.00000E+00 0.00000E+00 2.12208E-19 5.86944E-19
 8.89462E+01 0.00000E+00 0.00000E+00 0.00000E+00 0.00000E+00 0.00000E+00 2.42475E-19 6.48227E-19
 9.00000E+01 0.00000E+00 0.00000E+00 0.00000E+00 0.00000E+00 0.00000E+00 2.75273E-19 7.14716E-19
 9.02000E+01 0.00000E+00 0.00000E+00 0.00000E+00 0.00000E+00 0.00000E+00 2.81393E-19 7.27131E-19
 9.08693E+01 0.00000E+00 0.00000E+00 0.00000E+00 0.00000E+00 0.00000E+00 3.01634E-19 7.68216E-19
 9.11699E+01 0.00000E+00 0.00000E+00 0.00000E+00 0.00000E+00 0.00000E+00 3.10609E-19 7.86442E-19
 9.18463E+01 0.00000E+00 0.00000E+00 0.00000E+00 0.00000E+00 0.00000E+00 3.30545E-19 8.26953E-19
 9.21502E+01 0.00000E+00 0.00000E+00 0.00000E+00 0.00000E+00 0.00000E+00 3.39385E-19 8.44925E-19
 9.28339E+01 0.00000E+00 0.00000E+00 0.00000E+00 0.00000E+00 0.00000E+00 3.59023E-19 8.84871E-19
 9.31410E+01 0.00000E+00 0.00000E+00 0.00000E+00 0.00000E+00 0.00000E+00 3.67731E-19 9.02593E-19
 9.38321E+01 0.00000E+00 0.00000E+00 0.00000E+00 0.00000E+00 0.00000E+00 3.87078E-19 9.41985E-19
 9.41425E+01 0.00000E+00 0.00000E+00 0.00000E+00 0.00000E+00 0.00000E+00 3.95656E-19 9.59461E-19
 9.48410E+01 0.00000E+00 0.00000E+00 0.00000E+00 0.00000E+00 0.00000E+00 4.14717E-19 9.98308E-19
 9.51547E+01 0.00000E+00 0.00000E+00 0.00000E+00 0.00000E+00 0.00000E+00 4.23169E-19 1.01554E-18
 9.58608E+01 0.00000E+00 0.00000E+00 0.00000E+00 0.00000E+00 0.00000E+00 4.41949E-19 1.05385E-18
 9.61779E+01 0.00000E+00 0.00000E+00 0.00000E+00 0.00000E+00 0.00000E+00 4.50277E-19 1.07085E-18
 9.68915E+01 0.00000E+00 0.00000E+00 0.00000E+00 0.00000E+00 0.00000E+00 4.68783E-19 1.10864E-18
 9.72120E+01 0.00000E+00 0.00000E+00 0.00000E+00 0.00000E+00 0.00000E+00 4.76990E-19 1.12540E-18
 9.79333E+01 0.00000E+00 0.00000E+00 0.00000E+00 0.00000E+00 0.00000E+00 4.95226E-19 1.16267E-18
 9.82573E+01 0.00000E+00 0.00000E+00 0.00000E+00 0.00000E+00 0.00000E+00 5.03314E-19 1.17920E-18
 9.89863E+01 0.00000E+00 0.00000E+00 0.00000E+00 0.00000E+00 0.00000E+00 5.21286E-19 1.21596E-18
 9.93138E+01 0.00000E+00 0.00000E+00 0.00000E+00 0.00000E+00 0.00000E+00 5.29258E-19 1.23227E-18
 1.00000E+02 0.00000E+00 0.00000E+00 0.00000E+00 0.00000E+00 0.00000E+00 5.45763E-19 1.26606E-18
 1.00382E+02 0.00000E+00 0.00000E+00 0.00000E+00 0.00000E+00 0.00000E+00 5.54828E-19 1.28462E-18
 1.01126E+02 0.00000E+00 0.00000E+00 0.00000E+00 0.00000E+00 0.00000E+00 5.72288E-19 1.32038E-18
 1.01461E+02 0.00000E+00 0.00000E+00 0.00000E+00 0.00000E+00 0.00000E+00 5.80032E-19 1.33625E-18
 1.02214E+02 0.00000E+00 0.00000E+00 0.00000E+00 0.00000E+00 0.00000E+00 5.97243E-19 1.37153E-18
 1.02552E+02 0.00000E+00 0.00000E+00 0.00000E+00 0.00000E+00 0.00000E+00 6.04877E-19 1.38719E-18
 1.03313E+02 0.00000E+00 0.00000E+00 0.00000E+00 0.00000E+00 0.00000E+00 6.21843E-19 1.42199E-18
 1.03655E+02 0.00000E+00 0.00000E+00 0.00000E+00 0.00000E+00 0.00000E+00 6.29369E-19 1.43743E-18
 1.04424E+02 0.00000E+00 0.00000E+00 0.00000E+00 0.00000E+00 0.00000E+00 6.46095E-19 1.47176E-18
 1.04769E+02 0.00000E+00 0.00000E+00 0.00000E+00 0.00000E+00 0.00000E+00 6.53515E-19 1.48700E-18
 1.05547E+02 0.00000E+00 0.00000E+00 0.00000E+00 0.00000E+00 0.00000E+00 6.70005E-19 1.52087E-18
 1.05896E+02 0.00000E+00 0.00000E+00 0.00000E+00 0.00000E+00 0.00000E+00 6.77320E-19 1.53590E-18
 1.06681E+02 0.00000E+00 0.00000E+00 0.00000E+00 0.00000E+00 0.00000E+00 6.93579E-19 1.56931E-18
 1.07034E+02 0.00000E+00 0.00000E+00 0.00000E+00 0.00000E+00 0.00000E+00 7.00791E-19 1.58413E-18
 1.07828E+02 0.00000E+00 0.00000E+00 0.00000E+00 0.00000E+00 0.00000E+00 7.16822E-19 1.61710E-18
 1.08185E+02 0.00000E+00 0.00000E+00 0.00000E+00 0.00000E+00 0.00000E+00 7.23934E-19 1.63173E-18
 1.08988E+02 0.00000E+00 0.00000E+00 0.00000E+00 0.00000E+00 0.00000E+00 7.39740E-19 1.66424E-18
 1.09348E+02 0.00000E+00 0.00000E+00 0.00000E+00 0.00000E+00 0.00000E+00 7.46752E-19 1.67868E-18
 1.10000E+02 0.00000E+00 0.00000E+00 0.00000E+00 0.00000E+00 0.00000E+00 7.59290E-19 1.70448E-18
 1.10160E+02 0.00000E+00 0.00000E+00 0.00000E+00 0.00000E+00 0.00000E+00 7.62339E-19 1.71076E-18
 1.10524E+02 0.00000E+00 0.00000E+00 0.00000E+00 0.00000E+00 0.00000E+00 7.69253E-19 1.72499E-18
 1.11344E+02 0.00000E+00 0.00000E+00 0.00000E+00 0.00000E+00 0.00000E+00 7.84622E-19 1.75664E-18
 1.11713E+02 0.00000E+00 0.00000E+00 0.00000E+00 0.00000E+00 0.00000E+00 7.91441E-19 1.77069E-18
 1.12541E+02 0.00000E+00 0.00000E+00 0.00000E+00 0.00000E+00 0.00000E+00 8.06596E-19 1.80191E-18
 1.12914E+02 0.00000E+00 0.00000E+00 0.00000E+00 0.00000E+00 0.00000E+00 8.13320E-19 1.81577E-18
 1.13752E+02 0.00000E+00 0.00000E+00 0.00000E+00 0.00000E+00 0.00000E+00 8.28265E-19 1.84657E-18
 1.14128E+02 0.00000E+00 0.00000E+00 0.00000E+00 0.00000E+00 0.00000E+00 8.34895E-19 1.86024E-18
 1.14975E+02 0.00000E+00 0.00000E+00 0.00000E+00 0.00000E+00 0.00000E+00 8.49633E-19 1.89063E-18
 1.15355E+02 0.00000E+00 0.00000E+00 0.00000E+00 0.00000E+00 0.00000E+00 8.56171E-19 1.90412E-18
 1.16211E+02 0.00000E+00 0.00000E+00 0.00000E+00 0.00000E+00 0.00000E+00 8.70704E-19 1.93410E-18
 1.16595E+02 0.00000E+00 0.00000E+00 0.00000E+00 0.00000E+00 0.00000E+00 8.77152E-19 1.94740E-18
 1.17460E+02 0.00000E+00 0.00000E+00 0.00000E+00 0.00000E+00 0.00000E+00 8.91483E-19 1.97697E-18
 1.17849E+02 0.00000E+00 0.00000E+00 0.00000E+00 0.00000E+00 0.00000E+00 8.97841E-19 1.99010E-18
 1.18723E+02 0.00000E+00 0.00000E+00 0.00000E+00 0.00000E+00 0.00000E+00 9.11974E-19 2.01927E-18
 1.19116E+02 0.00000E+00 0.00000E+00 0.00000E+00 0.00000E+00 0.00000E+00 9.18244E-19 2.03221E-18
 1.20000E+02 0.00000E+00 0.00000E+00 0.00000E+00 0.00000E+00 0.00000E+00 9.32180E-19 2.06099E-18
 1.20397E+02 0.00000E+00 0.00000E+00 0.00000E+00 0.00000E+00 0.00000E+00 9.38362E-19 2.07393E-18
 1.21692E+02 0.00000E+00 0.00000E+00 0.00000E+00 0.00000E+00 0.00000E+00 9.58201E-19 2.11541E-18
 1.23000E+02 0.00000E+00 0.00000E+00 0.00000E+00 0.00000E+00 0.00000E+00 9.77763E-19 2.15623E-18
 1.25000E+02 0.00000E+00 0.00000E+00 0.00000E+00 0.00000E+00 0.00000E+00 1.00716E-18 2.21657E-18
 1.27000E+02 0.00000E+00 0.00000E+00 0.00000E+00 0.00000E+00 0.00000E+00 1.03540E-18 2.27460E-18
 1.27000E+02 0.00000E+00 0.00000E+00 0.00000E+00 0.00000E+00 0.00000E+00 1.03540E-18 2.27460E-18
 1.29710E+02 0.00000E+00 0.00000E+00 0.00000E+00 0.00000E+00 3.35927E-20 1.07194E-18 2.34984E-18
 1.33450E+02 0.00000E+00 0.00000E+00 0.00000E+00 0.00000E+00 7.57635E-20 1.11945E-18 2.44792E-18
 1.36787E+02 0.00000E+00 0.00000E+00 0.00000E+00 0.00000E+00 1.09953E-19 1.15931E-18 2.53044E-18
 1.39700E+02 0.00000E+00 0.00000E+00 0.00000E+00 0.00000E+00 1.37591E-19 1.19240E-18 2.59912E-18
 1.40000E+02 0.00000E+00 0.00000E+00 0.00000E+00 0.00000E+00 1.40332E-19 1.19572E-18 2.60602E-18
 1.41202E+02 0.00000E+00 0.00000E+00 0.00000E+00 0.00000E+00 1.51133E-19 1.20889E-18 2.63340E-18
 1.42720E+02 0.00000E+00 0.00000E+00 0.00000E+00 0.00000E+00 1.64376E-19 1.22519E-18 2.66731E-18
 1.44255E+02 0.00000E+00 0.00000E+00 0.00000E+00 0.00000E+00 1.77338E-19 1.24132E-18 2.70083E-18
 1.45806E+02 0.00000E+00 0.00000E+00 0.00000E+00 0.00000E+00 1.90038E-19 1.25728E-18 2.73396E-18
 1.47374E+02 0.00000E+00 0.00000E+00 0.00000E+00 0.00000E+00 2.02492E-19 1.27306E-18 2.76670E-18
 1.48958E+02 0.00000E+00 0.00000E+00 0.00000E+00 0.00000E+00 2.14715E-19 1.28866E-18 2.79905E-18
 1.50000E+02 0.00000E+00 0.00000E+00 0.00000E+00 0.00000E+00 2.22560E-19 1.29872E-18 2.81991E-18
 1.50560E+02 0.00000E+00 0.00000E+00 0.00000E+00 0.00000E+00 2.26720E-19 1.30407E-18 2.83100E-18
 1.52179E+02 0.00000E+00 0.00000E+00 0.00000E+00 0.00000E+00 2.38522E-19 1.31930E-18 2.86254E-18
 1.53815E+02 0.00000E+00 0.00000E+00 0.00000E+00 0.00000E+00 2.50131E-19 1.33435E-18 2.89368E-18
 1.55469E+02 0.00000E+00 0.00000E+00 0.00000E+00 0.00000E+00 2.61560E-19 1.34920E-18 2.92441E-18
 1.57141E+02 0.00000E+00 0.00000E+00 0.00000E+00 0.00000E+00 2.72819E-19 1.36387E-18 2.95472E-18
 1.58830E+02 0.00000E+00 0.00000E+00 0.00000E+00 0.00000E+00 2.83916E-19 1.37833E-18 2.98462E-18
 1.60538E+02 0.00000E+00 0.00000E+00 0.00000E+00 0.00000E+00 2.94862E-19 1.39260E-18 3.01409E-18
 1.62264E+02 0.00000E+00 0.00000E+00 0.00000E+00 0.00000E+00 3.05665E-19 1.40668E-18 3.04315E-18
 1.64009E+02 0.00000E+00 0.00000E+00 0.00000E+00 0.00000E+00 3.16331E-19 1.42054E-18 3.07177E-18
 1.65773E+02 0.00000E+00 0.00000E+00 0.00000E+00 0.00000E+00 3.26867E-19 1.43421E-18 3.09996E-18
 1.67555E+02 0.00000E+00 0.00000E+00 0.00000E+00 0.00000E+00 3.37280E-19 1.44767E-18 3.12772E-18
 1.69357E+02 0.00000E+00 0.00000E+00 0.00000E+00 0.00000E+00 3.47575E-19 1.46092E-18 3.15503E-18
 1.71178E+02 0.00000E+00 0.00000E+00 0.00000E+00 0.00000E+00 3.57758E-19 1.47395E-18 3.18190E-18
 1.73018E+02 0.00000E+00 0.00000E+00 0.00000E+00 0.00000E+00 3.67833E-19 1.48677E-18 3.20831E-18
 1.75000E+02 0.00000E+00 0.00000E+00 0.00000E+00 0.00000E+00 3.78448E-19 1.50019E-18 3.23593E-18
 1.76759E+02 0.00000E+00 0.00000E+00 0.00000E+00 0.00000E+00 3.87675E-19 1.51177E-18 3.25975E-18
