 PENELOPE (v. 2014)  Material data file ...............
 Material:                 Sb_Sn_B_0.42_0.17_0.21                        
 Mass density = 2.61874275E+00 g/cm**3
 Number of elements in the molecule =  5
   atomic number =  1,  atoms/molecule = 1.00000000E+00
   atomic number =  6,  atoms/molecule = 4.99982168E-01
   atomic number = 51,  atoms/molecule = 1.20966655E-01
   atomic number = 50,  atoms/molecule = 5.02165609E-02
   atomic number =  5,  atoms/molecule = 6.81143753E-01
 Mean excitation energy = 1.92435198E+02 eV
 Number of oscillators = 30 (E/P inelastic model)
   1  3.50672868E+00  0.00000000E+00  1.47464532E+01   0  30
   2  2.34233077E+00  1.49524593E+01  2.99862219E+01   0  30
   3  5.02165609E-01  2.84000000E+01  5.61670815E+01  50  30
   4  1.20966655E+00  3.74000000E+01  7.40203617E+01  51  30
   5  2.00866244E-01  9.30000000E+01  1.83660071E+02  50  12
   6  1.00433122E-01  1.02000000E+02  2.01419137E+02  50  11
   7  4.83866619E-01  1.04000000E+02  2.05406721E+02  51  12
   8  2.41933310E-01  1.14000000E+02  2.25126201E+02  51  11
   9  1.00433122E-01  1.41000000E+02  2.78425544E+02  50  10
  10  2.41933310E-01  1.57000000E+02  3.10027761E+02  51  10
  11  1.36228751E+00  1.92000000E+02  3.79196770E+02   5   1
  12  9.99964336E-01  2.88000000E+02  5.68720099E+02   6   1
  13  3.01299365E-01  4.89000000E+02  9.65584074E+02  50   9
  14  2.00866244E-01  4.97000000E+02  9.81378625E+02  50   8
  15  7.25799929E-01  5.33000000E+02  1.05247412E+03  51   9
  16  4.83866619E-01  5.42000000E+02  1.07024058E+03  51   8
  17  2.00866244E-01  7.19000000E+02  1.41973771E+03  50   7
  18  1.00433122E-01  7.61000000E+02  1.50266922E+03  50   6
  19  4.83866619E-01  7.71000000E+02  1.52242037E+03  51   7
  20  2.41933310E-01  8.17000000E+02  1.61324833E+03  51   6
  21  1.00433122E-01  8.88000000E+02  1.75344276E+03  50   5
  22  2.41933310E-01  9.49000000E+02  1.87389462E+03  51   5
  23  2.00866244E-01  3.93300000E+03  7.76608805E+03  50   4
  24  4.83866619E-01  4.13700000E+03  8.16890639E+03  51   4
  25  1.00433122E-01  4.16000000E+03  8.21432114E+03  50   3
  26  2.41933310E-01  4.38500000E+03  8.65860565E+03  51   3
  27  1.00433122E-01  4.46900000E+03  8.82447140E+03  50   2
  28  2.41933310E-01  4.70300000E+03  9.28652725E+03  51   2
  29  1.00433122E-01  2.92040000E+04  5.76661123E+04  50   1
  30  2.41933310E-01  3.04960000E+04  6.02172909E+04  51   1
 Number of shells = 30 (Compton IA model)
   1  3.50672868E+00  0.00000000E+00  9.01610097E-01   0  30
   2  2.34233077E+00  1.49524593E+01  8.55657265E-01   0  30
   3  5.02165609E-01  2.84000000E+01  1.92296200E-01  50  30
   4  1.20966655E+00  3.74000000E+01  1.79882800E-01  51  30
   5  2.00866244E-01  9.30000000E+01  2.16021000E-01  50  12
   6  1.00433122E-01  1.02000000E+02  2.09348000E-01  50  11
   7  4.83866619E-01  1.04000000E+02  2.06601000E-01  51  12
   8  2.41933310E-01  1.14000000E+02  2.00126000E-01  51  11
   9  1.00433122E-01  1.41000000E+02  3.22001000E-01  50  10
  10  2.41933310E-01  1.57000000E+02  3.08629000E-01  51  10
  11  1.36228751E+00  1.92000000E+02  1.85913000E-01   5   1
  12  9.99964336E-01  2.88000000E+02  1.53080000E-01   6   1
  13  3.01299365E-01  4.89000000E+02  5.68648000E-02  50   9
  14  2.00866244E-01  4.97000000E+02  5.62946000E-02  50   8
  15  7.25799929E-01  5.33000000E+02  5.51935000E-02  51   9
  16  4.83866619E-01  5.42000000E+02  5.46208000E-02  51   8
  17  2.00866244E-01  7.19000000E+02  8.38634000E-02  50   7
  18  1.00433122E-01  7.61000000E+02  8.14036000E-02  50   6
  19  4.83866619E-01  7.71000000E+02  8.15894000E-02  51   7
  20  2.41933310E-01  8.17000000E+02  7.91095000E-02  51   6
  21  1.00433122E-01  8.88000000E+02  1.36927000E-01  50   5
  22  2.41933310E-01  9.49000000E+02  1.33156000E-01  51   5
  23  2.00866244E-01  3.93300000E+03  3.04471000E-02  50   4
  24  4.83866619E-01  4.13700000E+03  2.97729000E-02  51   4
  25  1.00433122E-01  4.16000000E+03  2.91768000E-02  50   3
  26  2.41933310E-01  4.38500000E+03  2.84789000E-02  51   3
  27  1.00433122E-01  4.46900000E+03  5.86085000E-02  50   2
  28  2.41933310E-01  4.70300000E+03  5.72432000E-02  51   2
  29  1.00433122E-01  2.92040000E+04  1.63105000E-02  50   1
  30  2.41933310E-01  3.04960000E+04  1.59473000E-02  51   1
 *** RELAX:  Z =  1,  no. of shells =  1,  no. of transitions =    0
   1 1s1/2 1  1.36000E+01  0.00000E+00  8.48807E-01
 *** RELAX:  Z =  6,  no. of shells =  3,  no. of transitions =    8
   1 1s1/2 2  2.88000E+02  6.14394E-02  1.53080E-01
   2 2s1/2 2  1.65900E+01  0.00000E+00  8.03154E-01
   3 2p1/2 2  1.12600E+01  0.00000E+00  4.88373E-01
   1  3  0  5.61488E-04  2.77000E+02
   1  4  0  1.12060E-03  2.77000E+02
   1  2  2  4.13609E-01  2.55890E+02
   1  2  3  1.36190E-01  2.64460E+02
   1  2  4  2.71099E-01  2.64470E+02
   1  3  3  4.20748E-03  2.73030E+02
   1  3  4  1.10012E-01  2.73040E+02
   1  4  4  6.32008E-02  2.73050E+02
 *** RELAX:  Z = 51,  no. of shells = 17,  no. of transitions =  762
   1 1s1/2 2  3.04960E+04  9.20000E+00  1.59473E-02
   2 2s1/2 2  4.70300E+03  2.30000E+00  5.72432E-02
   3 2p1/2 2  4.38500E+03  2.74000E+00  2.84789E-02
   4 2p3/2 4  4.13700E+03  2.53000E+00  2.97729E-02
   5 3s1/2 2  9.49000E+02  1.00000E+01  1.33156E-01
   6 3p1/2 2  8.17000E+02  3.00000E+00  7.91095E-02
   7 3p3/2 4  7.71000E+02  3.60000E+00  8.15894E-02
   8 3d3/2 4  5.42000E+02  4.70000E-01  5.46208E-02
   9 3d5/2 6  5.33000E+02  4.80000E-01  5.51935E-02
  10 4s1/2 2  1.57000E+02  2.60000E+00  3.08629E-01
  11 4p1/2 2  1.14000E+02  2.36212E+01  2.00126E-01
  12 4p3/2 4  1.04000E+02  3.03261E+01  2.06601E-01
  13 4d3/2 4  3.80000E+01  1.40000E-01  1.78468E-01
  14 4d5/2 6  3.70000E+01  1.40000E-01  1.80826E-01
  17 5s1/2 2  1.50000E+01  0.00000E+00  9.99181E-01
  18 5p1/2 2  8.64000E+00  0.00000E+00  7.30179E-01
  19 5p3/2 1  8.64000E+00  0.00000E+00  7.63121E-01
   1  3  0  2.50430E-01  2.61108E+04
   1  4  0  4.67350E-01  2.63589E+04
   1  6  0  4.26060E-02  2.96792E+04
   1  7  0  8.26640E-02  2.97255E+04
   1  8  0  3.60860E-04  2.99561E+04
   1  9  0  4.97690E-04  2.99633E+04
   1 11  0  8.77440E-03  3.03620E+04
   1 12  0  1.71920E-02  3.03709E+04
   1 13  0  5.71680E-05  3.04371E+04
   1 14  0  7.84450E-05  3.04384E+04
   1 18  0  3.23920E-04  3.04713E+04
   1 19  0  5.95080E-04  3.04720E+04
   1  2  2  9.90275E-03  2.11316E+04
   1  2  3  1.16747E-02  2.14193E+04
   1  2  4  1.49491E-02  2.16748E+04
   1  2  5  3.47898E-03  2.48763E+04
   1  2  6  2.18615E-03  2.49961E+04
   1  2  7  2.81937E-03  2.50436E+04
   1  2  8  1.82728E-04  2.52575E+04
   1  2  9  2.04712E-04  2.52675E+04
   1  2 10  7.22565E-04  2.56470E+04
   1  2 11  4.22149E-04  2.56883E+04
   1  2 12  5.40121E-04  2.56972E+04
   1  2 13  2.94918E-05  2.57634E+04
   1  2 14  3.26721E-05  2.57647E+04
   1  2 17  9.45492E-05  2.57894E+04
   1  2 18  2.05291E-05  2.57976E+04
   1  2 19  2.54445E-05  2.57983E+04
   1  3  3  1.52851E-03  2.17070E+04
   1  3  4  3.26966E-02  2.19625E+04
   1  3  5  1.69860E-03  2.51640E+04
   1  3  6  5.14099E-04  2.52838E+04
   1  3  7  5.14555E-03  2.53313E+04
   1  3  8  2.24378E-04  2.55452E+04
   1  3  9  7.60718E-04  2.55552E+04
   1  3 10  3.39748E-04  2.59347E+04
   1  3 11  9.74410E-05  2.59760E+04
   1  3 12  9.54184E-04  2.59849E+04
   1  3 13  3.55635E-05  2.60511E+04
   1  3 14  1.19985E-04  2.60524E+04
   1  3 17  4.42374E-05  2.60771E+04
   1  3 18  4.62620E-06  2.60853E+04
   1  3 19  4.48166E-05  2.60860E+04
   1  4  4  1.65720E-02  2.22180E+04
   1  4  5  2.14087E-03  2.54195E+04
   1  4  6  5.03716E-03  2.55393E+04
   1  4  7  5.35262E-03  2.55868E+04
   1  4  8  9.11672E-04  2.58007E+04
   1  4  9  8.45454E-04  2.58107E+04
   1  4 10  4.27062E-04  2.61902E+04
   1  4 11  9.40285E-04  2.62315E+04
   1  4 12  9.98068E-04  2.62404E+04
   1  4 13  1.44858E-04  2.63066E+04
   1  4 14  1.33879E-04  2.63079E+04
   1  4 17  5.55167E-05  2.63326E+04
   1  4 18  4.53955E-05  2.63408E+04
   1  4 19  4.71305E-05  2.63415E+04
   1  5  5  3.00989E-04  2.86210E+04
   1  5  6  3.20951E-04  2.87409E+04
   1  5  7  4.07121E-04  2.87883E+04
   1  5  8  2.48664E-05  2.90022E+04
   1  5  9  2.68901E-05  2.90122E+04
   1  5 10  1.24622E-04  2.93918E+04
   1  5 11  6.21655E-05  2.94330E+04
   1  5 12  7.80690E-05  2.94419E+04
   1  5 13  4.04804E-06  2.95082E+04
   1  5 14  4.33720E-06  2.95095E+04
   1  5 17  1.61923E-05  2.95341E+04
   1  5 18  2.89137E-06  2.95423E+04
   1  5 19  3.75897E-06  2.95430E+04
   1  6  6  4.13463E-05  2.88607E+04
   1  6  7  8.05560E-04  2.89082E+04
   1  6  8  2.71796E-05  2.91220E+04
   1  6  9  9.19480E-05  2.91320E+04
   1  6 10  6.41900E-05  2.95116E+04
   1  6 11  1.56139E-05  2.95528E+04
   1  6 12  1.49777E-04  2.95617E+04
   1  6 13  4.33719E-06  2.96280E+04
   1  6 14  1.44563E-05  2.96293E+04
   1  6 17  8.38514E-06  2.96539E+04
   1  6 18  8.67421E-07  2.96621E+04
   1  6 19  6.93949E-06  2.96628E+04
   1  7  7  4.33717E-04  2.89556E+04
   1  7  8  1.16519E-04  2.91695E+04
   1  7  9  1.05533E-04  2.91795E+04
   1  7 10  8.12488E-05  2.95590E+04
   1  7 11  1.50641E-04  2.96003E+04
   1  7 12  1.61922E-04  2.96092E+04
   1  7 13  1.85055E-05  2.96754E+04
   1  7 14  1.67696E-05  2.96768E+04
   1  7 17  1.06985E-05  2.97014E+04
   1  7 18  7.22853E-06  2.97096E+04
   1  7 19  7.51769E-06  2.97103E+04
   1  8  9  1.34430E-05  2.93934E+04
   1  8 10  4.76136E-06  2.97729E+04
   1  8 11  4.76136E-06  2.98142E+04
   1  8 12  2.01664E-05  2.98231E+04
   1  8 14  1.96043E-06  2.98906E+04
   1  8 17  5.60157E-07  2.99153E+04
   1  8 18  2.80074E-07  2.99235E+04
   1  8 19  8.40232E-07  2.99242E+04
   1  9  9  3.20034E-06  2.94033E+04
   1  9 10  5.23701E-06  2.97829E+04
   1  9 11  1.65846E-05  2.98241E+04
   1  9 12  1.89113E-05  2.98330E+04
   1  9 13  2.03648E-06  2.98993E+04
   1  9 14  1.16377E-06  2.99006E+04
   1  9 17  5.81886E-07  2.99252E+04
   1  9 18  8.72825E-07  2.99334E+04
   1  9 19  8.72825E-07  2.99341E+04
   1 10 10  1.30046E-05  3.01625E+04
   1 10 11  1.24266E-05  3.02037E+04
   1 10 12  1.56052E-05  3.02126E+04
   1 10 13  8.66933E-07  3.02789E+04
   1 10 14  8.66933E-07  3.02802E+04
   1 10 17  3.46784E-06  3.03048E+04
   1 10 18  5.77958E-07  3.03130E+04
   1 10 19  8.66933E-07  3.03137E+04
   1 11 11  1.36562E-06  3.02450E+04
   1 11 12  2.64943E-05  3.02539E+04
   1 11 13  8.19410E-07  3.03201E+04
   1 11 14  2.45827E-06  3.03214E+04
   1 11 17  1.63878E-06  3.03461E+04
   1 11 19  1.36562E-06  3.03550E+04
   1 12 12  1.48831E-05  3.02628E+04
   1 12 13  3.43459E-06  3.03290E+04
   1 12 14  2.86204E-06  3.03303E+04
   1 12 17  2.00334E-06  3.03550E+04
   1 12 18  1.43097E-06  3.03632E+04
   1 12 19  1.43097E-06  3.03639E+04
   1 13 14  2.89130E-07  3.03966E+04
   1 13 19  2.89130E-07  3.04301E+04
   1 17 17  4.36520E-07  3.04472E+04
   2  3  0  2.01991E-05  2.87700E+02
   2  4  0  2.93921E-04  5.43200E+02
   2  6  0  1.16940E-02  3.88642E+03
   2  7  0  1.88821E-02  3.93273E+03
   2  8  0  1.54180E-04  4.16164E+03
   2  9  0  2.30111E-04  4.17082E+03
   2 11  0  2.34711E-03  4.55668E+03
   2 12  0  3.86191E-03  4.56558E+03
   2 13  0  1.64701E-05  4.63183E+03
   2 14  0  2.48731E-05  4.63314E+03
   2 18  0  9.68973E-05  4.66597E+03
   2 19  0  1.51600E-04  4.66668E+03
   2  3 10  5.78268E-02  1.29430E+02
   2  3 11  4.09279E-02  1.70680E+02
   2  3 12  5.34318E-02  1.79580E+02
   2  3 13  1.26330E-02  2.45830E+02
   2  3 14  2.05049E-02  2.47140E+02
   2  3 17  7.31718E-03  2.71780E+02
   2  3 18  1.88009E-03  2.79970E+02
   2  3 19  2.39889E-03  2.80680E+02
   2  4 10  7.79982E-02  3.84930E+02
   2  4 11  3.45396E-02  4.26180E+02
   2  4 12  6.60903E-02  4.35080E+02
   2  4 13  5.62784E-02  5.01330E+02
   2  4 14  7.26563E-02  5.02640E+02
   2  4 17  9.89641E-03  5.27280E+02
   2  4 18  1.61198E-03  5.35470E+02
   2  4 19  3.03977E-03  5.36180E+02
   2  5  5  1.38843E-02  2.81574E+03
   2  5  6  2.75506E-02  2.93556E+03
   2  5  7  5.13510E-02  2.98303E+03
   2  5  8  4.10878E-02  3.19693E+03
   2  5  9  5.84282E-02  3.20687E+03
   2  5 10  4.93640E-03  3.58645E+03
   2  5 11  5.21491E-03  3.62770E+03
   2  5 12  9.62439E-03  3.63660E+03
   2  5 13  5.70782E-03  3.70285E+03
   2  5 14  8.05656E-03  3.70416E+03
   2  5 17  6.33043E-04  3.72880E+03
   2  5 18  2.51665E-04  3.73699E+03
   2  5 19  4.54049E-04  3.73770E+03
   2  6  6  1.65179E-04  3.05538E+03
   2  6  7  1.12249E-03  3.10285E+03
   2  6  8  1.11819E-03  3.31675E+03
   2  6  9  1.50359E-02  3.32669E+03
   2  6 10  3.95138E-03  3.70627E+03
   2  6 11  3.37268E-05  3.74752E+03
   2  6 12  1.99769E-04  3.75642E+03
   2  6 13  1.58259E-04  3.82267E+03
   2  6 14  1.40189E-03  3.82398E+03
   2  6 17  4.86008E-04  3.84862E+03
   2  6 18  1.72959E-06  3.85681E+03
   2  6 19  9.51295E-06  3.85752E+03
   2  7  7  1.19259E-03  3.15032E+03
   2  7  8  1.10479E-02  3.36422E+03
   2  7  9  7.57034E-03  3.37416E+03
   2  7 10  7.36544E-03  3.75374E+03
   2  7 11  1.99768E-04  3.79499E+03
   2  7 12  3.45057E-04  3.80389E+03
   2  7 13  9.15822E-04  3.87014E+03
   2  7 14  6.53785E-04  3.87145E+03
   2  7 17  9.06312E-04  3.89609E+03
   2  7 18  9.51292E-06  3.90428E+03
   2  7 19  1.55659E-05  3.90499E+03
   2  8  8  2.29003E-03  3.57812E+03
   2  8  9  8.40160E-02  3.58806E+03
   2  8 10  5.61277E-03  3.96764E+03
   2  8 11  2.75003E-04  4.00889E+03
   2  8 12  2.07642E-03  4.01779E+03
   2  8 13  6.30457E-04  4.08404E+03
   2  8 14  8.64230E-03  4.08535E+03
   2  8 17  6.85798E-04  4.10999E+03
   2  8 18  1.38372E-05  4.11818E+03
   2  8 19  9.77252E-05  4.11889E+03
   2  9  9  2.36891E-02  3.59800E+03
   2  9 10  8.02214E-03  3.97758E+03
   2  9 11  2.60561E-03  4.01883E+03
   2  9 12  1.49171E-03  4.02773E+03
   2  9 13  8.58844E-03  4.09398E+03
   2  9 14  5.08412E-03  4.09529E+03
   2  9 17  9.81576E-04  4.11993E+03
   2  9 18  1.24531E-04  4.12812E+03
   2  9 19  7.09153E-05  4.12883E+03
   2 10 10  4.17715E-04  4.35716E+03
   2 10 11  7.50659E-04  4.39841E+03
   2 10 12  1.38372E-03  4.40731E+03
   2 10 13  7.77459E-04  4.47356E+03
   2 10 14  1.10091E-03  4.47487E+03
   2 10 17  1.06371E-04  4.49951E+03
   2 10 18  3.63204E-05  4.50770E+03
   2 10 19  6.48608E-05  4.50841E+03
   2 11 11  1.72959E-06  4.43966E+03
   2 11 12  3.63197E-05  4.44856E+03
   2 11 13  3.28618E-05  4.51481E+03
   2 11 14  2.49928E-04  4.51612E+03
   2 11 17  9.25324E-05  4.54076E+03
   2 11 19  1.72959E-06  4.54966E+03
   2 12 12  2.50799E-05  4.45746E+03
   2 12 13  1.81609E-04  4.52371E+03
   2 12 14  1.34049E-04  4.52502E+03
   2 12 17  1.70359E-04  4.54966E+03
   2 12 18  1.72959E-06  4.55785E+03
   2 12 19  2.59449E-06  4.55856E+03
   2 13 13  4.15093E-05  4.58996E+03
   2 13 14  9.38291E-04  4.59127E+03
   2 13 17  9.51260E-05  4.61591E+03
   2 13 18  1.72953E-06  4.62410E+03
   2 13 19  8.64774E-06  4.62481E+03
   2 14 14  2.86250E-04  4.59258E+03
   2 14 17  1.34050E-04  4.61722E+03
   2 14 18  1.21080E-05  4.62541E+03
   2 14 19  6.05350E-06  4.62612E+03
   2 17 17  6.29062E-06  4.64186E+03
   2 17 18  3.93152E-06  4.65005E+03
   2 17 19  7.07692E-06  4.65076E+03
   3  4  0  3.65139E-08  2.55500E+02
   3  5  0  3.75579E-03  3.43665E+03
   3  7  0  4.98529E-05  3.61530E+03
   3  8  0  6.14489E-02  3.84361E+03
   3 10  0  4.75729E-04  4.22773E+03
   3 12  0  4.80709E-06  4.27788E+03
   3 13  0  7.90419E-03  4.34413E+03
   3 17  0  4.53629E-05  4.37008E+03
   3 19  0  1.88800E-07  4.37898E+03
   3  4 10  1.21968E-02  9.72300E+01
   3  4 11  5.10434E-02  1.38480E+02
   3  4 12  1.80542E-02  1.47380E+02
   3  4 13  6.24951E-02  2.13630E+02
   3  4 14  2.33185E-02  2.14940E+02
   3  4 17  1.44509E-03  2.39580E+02
   3  4 18  2.35405E-03  2.47770E+02
   3  4 19  8.42596E-04  2.48480E+02
   3  5  5  1.08766E-03  2.52804E+03
   3  5  6  2.57903E-02  2.64786E+03
   3  5  7  2.50973E-03  2.69533E+03
   3  5  8  1.81369E-03  2.90923E+03
   3  5  9  3.69470E-03  2.91917E+03
   3  5 10  3.61530E-04  3.29875E+03
   3  5 11  3.39438E-03  3.34000E+03
   3  5 12  4.18783E-04  3.34890E+03
   3  5 13  1.85790E-04  3.41515E+03
   3  5 14  3.26387E-04  3.41646E+03
   3  5 17  4.51925E-05  3.44110E+03
   3  5 18  1.55668E-04  3.44929E+03
   3  5 19  1.90810E-05  3.45000E+03
   3  6  6  2.52550E-02  2.76768E+03
   3  6  7  7.99652E-02  2.81515E+03
   3  6  8  4.33538E-02  3.02905E+03
   3  6  9  7.47090E-02  3.03899E+03
   3  6 10  5.46102E-03  3.41857E+03
   3  6 11  8.23563E-03  3.45982E+03
   3  6 12  1.47306E-02  3.46872E+03
   3  6 13  5.99844E-03  3.53497E+03
   3  6 14  1.03134E-02  3.53628E+03
   3  6 17  7.16019E-04  3.56092E+03
   3  6 18  3.89656E-04  3.56911E+03
   3  6 19  6.91918E-04  3.56982E+03
   3  7  7  2.11597E-03  2.86262E+03
   3  7  8  5.24769E-02  3.07652E+03
   3  7  9  7.06566E-03  3.08646E+03
   3  7 10  4.57927E-04  3.46604E+03
   3  7 11  1.09154E-02  3.50729E+03
   3  7 12  6.59774E-04  3.51619E+03
   3  7 13  6.28843E-03  3.58244E+03
   3  7 14  7.90348E-04  3.58375E+03
   3  7 17  5.82451E-05  3.60839E+03
   3  7 18  5.02108E-04  3.61658E+03
   3  7 19  3.01270E-05  3.61729E+03
   3  8  8  4.78289E-02  3.29042E+03
   3  8  9  2.06154E-01  3.30036E+03
   3  8 10  3.89648E-04  3.67994E+03
   3  8 11  5.93291E-03  3.72119E+03
   3  8 12  9.16067E-03  3.73009E+03
   3  8 13  1.14282E-02  3.79634E+03
   3  8 14  2.61935E-02  3.79765E+03
   3  8 17  5.12140E-05  3.82229E+03
   3  8 18  2.74155E-04  3.83048E+03
   3  8 19  4.26818E-04  3.83119E+03
   3  9  9  9.80724E-03  3.31030E+03
   3  9 10  6.60813E-04  3.68988E+03
   3  9 11  9.14352E-03  3.73113E+03
   3  9 12  1.12974E-03  3.74003E+03
   3  9 13  2.11137E-02  3.80628E+03
   3  9 14  2.27858E-03  3.80759E+03
   3  9 17  8.43570E-05  3.83223E+03
   3  9 18  4.13755E-04  3.84042E+03
   3  9 19  5.22219E-05  3.84113E+03
   3 10 10  3.39299E-05  4.06946E+03
   3 10 11  8.41212E-04  4.11071E+03
   3 10 12  9.00889E-05  4.11961E+03
   3 10 13  4.44590E-05  4.18586E+03
   3 10 14  6.90286E-05  4.18717E+03
   3 10 17  8.18971E-06  4.21181E+03
   3 10 18  3.86101E-05  4.22000E+03
   3 10 19  4.67985E-06  4.22071E+03
   3 11 11  6.20064E-04  4.15196E+03
   3 11 12  1.93456E-03  4.16086E+03
   3 11 13  7.78472E-04  4.22711E+03
   3 11 14  1.22177E-03  4.22842E+03
   3 11 17  9.07853E-05  4.25306E+03
   3 11 18  5.79495E-05  4.26125E+03
   3 11 19  9.07853E-05  4.26196E+03
   3 12 12  5.18081E-05  4.16976E+03
   3 12 13  1.09797E-03  4.23601E+03
   3 12 14  1.28518E-04  4.23732E+03
   3 12 17  9.96277E-06  4.26196E+03
   3 12 18  9.16592E-05  4.27015E+03
   3 12 19  4.98130E-06  4.27086E+03
   3 13 13  6.75853E-04  4.30226E+03
   3 13 14  2.75865E-03  4.30357E+03
   3 13 17  5.02100E-06  4.32821E+03
   3 13 18  3.71558E-05  4.33640E+03
   3 13 19  5.12140E-05  4.33711E+03
   3 14 14  1.38854E-04  4.30488E+03
   3 14 17  8.35227E-06  4.32952E+03
   3 14 18  5.95091E-05  4.33771E+03
   3 14 19  6.26395E-06  4.33842E+03
   3 17 18  4.01689E-06  4.36235E+03
   3 18 18  1.00425E-06  4.37054E+03
   3 18 19  3.01275E-06  4.37125E+03
   4  5  0  6.63168E-03  3.18863E+03
   4  6  0  3.44929E-05  3.32130E+03
   4  7  0  3.22599E-05  3.36730E+03
   4  8  0  6.15498E-03  3.59536E+03
   4  9  0  5.45798E-02  3.60476E+03
   4 10  0  5.14908E-04  3.97223E+03
   4 11  0  2.40449E-06  4.01348E+03
   4 12  0  2.29839E-06  4.02238E+03
   4 13  0  7.74928E-04  4.08863E+03
   4 14  0  6.88898E-03  4.08994E+03
   4 17  0  5.81298E-05  4.11458E+03
   4 18  0  9.89377E-08  4.12277E+03
   4 19  0  8.99957E-08  4.12348E+03
   4  5  5  1.41410E-03  2.27254E+03
   4  5  6  1.03082E-03  2.39236E+03
   4  5  7  2.99215E-02  2.43983E+03
   4  5  8  2.95925E-03  2.65373E+03
   4  5  9  3.15039E-03  2.66367E+03
   4  5 10  4.70652E-04  3.04325E+03
   4  5 11  1.63805E-04  3.08450E+03
   4  5 12  3.93005E-03  3.09340E+03
   4  5 13  2.31500E-04  3.15965E+03
   4  5 14  2.30410E-04  3.16096E+03
   4  5 17  5.89678E-05  3.18560E+03
   4  5 18  7.64376E-06  3.19379E+03
   4  5 19  1.75808E-04  3.19450E+03
   4  6  6  3.49437E-04  2.51218E+03
   4  6  7  4.97459E-02  2.55965E+03
   4  6  8  3.41244E-03  2.77355E+03
   4  6  9  3.04566E-02  2.78349E+03
   4  6 10  1.84539E-04  3.16307E+03
   4  6 11  1.10294E-04  3.20432E+03
   4  6 12  6.76168E-03  3.21322E+03
   4  6 13  4.42247E-04  3.27947E+03
   4  6 14  3.45836E-03  3.28078E+03
   4  6 17  2.40232E-05  3.30542E+03
   4  6 18  5.45979E-06  3.31361E+03
   4  6 19  3.04666E-04  3.31432E+03
   4  7  7  7.03608E-02  2.60712E+03
   4  7  8  7.13600E-02  2.82102E+03
   4  7  9  1.08393E-01  2.83096E+03
   4  7 10  6.27362E-03  3.21054E+03
   4  7 11  9.06471E-03  3.25179E+03
   4  7 12  2.24947E-02  3.26069E+03
   4  7 13  9.55481E-03  3.32694E+03
   4  7 14  1.43000E-02  3.32825E+03
   4  7 17  8.22283E-04  3.35289E+03
   4  7 18  4.35692E-04  3.36108E+03
   4  7 19  1.03962E-03  3.36179E+03
   4  8  8  1.04024E-02  3.03492E+03
   4  8  9  2.00017E-01  3.04486E+03
   4  8 10  5.76564E-04  3.42444E+03
   4  8 11  6.18074E-04  3.46569E+03
   4  8 12  9.10512E-03  3.47459E+03
   4  8 13  2.49308E-03  3.54084E+03
   4  8 14  2.07568E-02  3.54215E+03
   4  8 17  7.42553E-05  3.56679E+03
   4  8 18  2.94838E-05  3.57498E+03
   4  8 19  4.06204E-04  3.57569E+03
   4  9  9  1.35950E-01  3.05480E+03
   4  9 10  6.54095E-04  3.43438E+03
   4  9 11  5.19775E-03  3.47563E+03
   4  9 12  1.53994E-02  3.48453E+03
   4  9 13  2.42363E-02  3.55078E+03
   4  9 14  3.12199E-02  3.55209E+03
   4  9 17  8.51748E-05  3.57673E+03
   4  9 18  2.46794E-04  3.58492E+03
   4  9 19  6.99965E-04  3.58563E+03
   4 10 10  4.69733E-05  3.81396E+03
   4 10 11  3.52288E-05  3.85521E+03
   4 10 12  9.87750E-04  3.86411E+03
   4 10 13  5.74127E-05  3.93036E+03
   4 10 14  6.00207E-05  3.93167E+03
   4 10 17  1.17438E-05  3.95631E+03
   4 10 18  1.30484E-06  3.96450E+03
   4 10 19  4.43620E-05  3.96521E+03
   4 11 11  8.41042E-06  3.89646E+03
   4 11 12  1.18585E-03  3.90536E+03
   4 11 13  7.56929E-05  3.97161E+03
   4 11 14  5.82418E-04  3.97292E+03
   4 11 17  3.15378E-06  3.99756E+03
   4 11 18  1.05132E-06  4.00575E+03
   4 11 19  5.36139E-05  4.00646E+03
   4 12 12  1.66647E-03  3.91426E+03
   4 12 13  1.16521E-03  3.98051E+03
   4 12 14  1.91764E-03  3.98182E+03
   4 12 17  1.03185E-04  4.00646E+03
   4 12 18  5.62795E-05  4.01465E+03
   4 12 19  1.53206E-04  4.01536E+03
   4 13 13  1.46321E-04  4.04676E+03
   4 13 14  2.57925E-03  4.04807E+03
   4 13 17  6.55179E-06  4.07271E+03
   4 13 18  3.27589E-06  4.08090E+03
   4 13 19  5.45976E-05  4.08161E+03
   4 14 14  1.90590E-03  4.04938E+03
   4 14 17  6.93888E-06  4.07402E+03
   4 14 18  3.00695E-05  4.08221E+03
   4 14 19  9.59901E-05  4.08292E+03
   4 17 17  1.09203E-06  4.09866E+03
   4 17 19  4.36785E-06  4.10756E+03
   4 18 19  2.18399E-06  4.11575E+03
   4 19 19  3.27589E-06  4.11646E+03
   5  6  0  1.14777E-05  1.19820E+02
   5  7  0  6.46851E-05  1.67290E+02
   5 11  0  1.60535E-04  8.11960E+02
   5 12  0  2.24792E-04  8.20860E+02
   5 18  0  7.23611E-06  9.21250E+02
   5 19  0  9.82188E-06  9.21960E+02
   5  6 13  6.33903E-02  7.79500E+01
   5  6 14  8.60312E-02  7.92600E+01
   5  6 17  5.59965E-03  1.03900E+02
   5  6 18  1.71433E-03  1.12090E+02
   5  6 19  2.93122E-03  1.12800E+02
   5  7 11  8.08845E-02  5.02700E+01
   5  7 12  1.25741E-01  5.91700E+01
   5  7 13  5.33180E-02  1.25420E+02
   5  7 14  7.82427E-02  1.26730E+02
   5  7 17  8.28604E-03  1.51370E+02
   5  7 18  2.68563E-03  1.59560E+02
   5  7 19  4.08464E-03  1.60270E+02
   5  8 10  2.86204E-02  2.22920E+02
   5  8 11  5.83951E-03  2.64170E+02
   5  8 12  4.48476E-03  2.73070E+02
   5  8 13  6.50010E-03  3.39320E+02
   5  8 14  7.82225E-03  3.40630E+02
   5  8 17  2.35662E-03  3.65270E+02
   5  8 18  1.74939E-04  3.73460E+02
   5  8 19  1.24902E-04  3.74170E+02
   5  9 10  4.19181E-02  2.32860E+02
   5  9 11  1.53459E-03  2.74110E+02
   5  9 12  1.15090E-02  2.83010E+02
   5  9 13  8.24424E-03  3.49260E+02
   5  9 14  1.31200E-02  3.50570E+02
   5  9 17  3.44104E-03  3.75210E+02
   5  9 18  4.25700E-05  3.83400E+02
   5  9 19  3.23753E-04  3.84110E+02
   5 10 10  9.80676E-03  6.12440E+02
   5 10 11  1.54346E-02  6.53690E+02
   5 10 12  2.85018E-02  6.62590E+02
   5 10 13  2.54366E-02  7.28840E+02
   5 10 14  3.70155E-02  7.30150E+02
   5 10 17  1.89544E-03  7.54790E+02
   5 10 18  5.52173E-04  7.62980E+02
   5 10 19  9.66005E-04  7.63690E+02
   5 11 11  9.04042E-04  6.94940E+02
   5 11 12  2.18453E-03  7.03840E+02
   5 11 13  1.20146E-03  7.70090E+02
   5 11 14  3.92352E-04  7.71400E+02
   5 11 17  1.24735E-03  7.96040E+02
   5 11 18  5.54428E-05  8.04230E+02
   5 11 19  6.07688E-05  8.04940E+02
   5 12 12  2.78616E-03  7.12740E+02
   5 12 13  1.00873E-03  7.78990E+02
   5 12 14  2.94067E-03  7.80300E+02
   5 12 17  2.20450E-03  8.04940E+02
   5 12 18  6.40594E-05  8.13130E+02
   5 12 19  1.63711E-04  8.13840E+02
   5 13 13  3.04172E-04  8.45240E+02
   5 13 14  9.14483E-04  8.46550E+02
   5 13 17  1.92169E-03  8.71190E+02
   5 13 18  3.22297E-05  8.79380E+02
   5 13 19  2.71940E-05  8.80090E+02
   5 14 14  6.72807E-04  8.47860E+02
   5 14 17  2.79591E-03  8.72500E+02
   5 14 18  1.00718E-05  8.80690E+02
   5 14 19  8.15840E-05  8.81400E+02
   5 17 17  8.13849E-05  8.97140E+02
   5 17 18  4.11786E-05  9.05330E+02
   5 17 19  7.15748E-05  9.06040E+02
   5 18 19  2.01438E-06  9.14230E+02
   5 19 19  2.01438E-06  9.14940E+02
   6  8  0  4.22810E-04  2.74300E+02
   6 10  0  2.55602E-04  6.50890E+02
   6 13  0  7.92687E-04  7.67290E+02
   6 17  0  3.19958E-05  7.93240E+02
   6  8 10  1.32881E-01  1.03100E+02
   6  8 11  1.34782E-01  1.44350E+02
   6  8 12  2.01202E-01  1.53250E+02
   6  8 13  4.96127E-02  2.19500E+02
   6  8 14  5.10401E-02  2.20810E+02
   6  8 17  1.53599E-02  2.45450E+02
   6  8 18  4.29815E-03  2.53640E+02
   6  8 19  6.59061E-03  2.54350E+02
   6  9 10  2.28507E-02  1.13040E+02
   6  9 11  1.67391E-01  1.54290E+02
   6  9 12  1.76795E-02  1.63190E+02
   6  9 13  4.02461E-03  2.29440E+02
   6  9 14  6.65159E-03  2.30750E+02
   6  9 17  1.82883E-03  2.55390E+02
   6  9 18  4.59865E-03  2.63580E+02
   6  9 19  5.33859E-04  2.64290E+02
   6 10 10  7.17075E-04  4.92620E+02
   6 10 11  1.02860E-02  5.33870E+02
   6 10 12  1.67563E-03  5.42770E+02
   6 10 13  3.67323E-04  6.09020E+02
   6 10 14  9.80913E-04  6.10330E+02
   6 10 17  1.32598E-04  6.34970E+02
   6 10 18  2.71251E-04  6.43160E+02
   6 10 19  5.20886E-05  6.43870E+02
   6 11 11  7.02024E-03  5.75120E+02
   6 11 12  2.19914E-02  5.84020E+02
   6 11 13  1.71177E-02  6.50270E+02
   6 11 14  2.84761E-02  6.51580E+02
   6 11 17  1.15795E-03  6.76220E+02
   6 11 18  4.41866E-04  6.84410E+02
   6 11 19  7.44260E-04  6.85120E+02
   6 12 12  6.30080E-04  5.92920E+02
   6 12 13  1.92215E-03  6.59170E+02
   6 12 14  1.34629E-03  6.60480E+02
   6 12 17  1.46299E-04  6.85120E+02
   6 12 18  6.39514E-04  6.93310E+02
   6 12 19  3.69361E-05  6.94020E+02
   6 13 13  6.13559E-04  7.25420E+02
   6 13 14  1.40827E-03  7.26730E+02
   6 13 17  4.00923E-05  7.51370E+02
   6 13 18  4.83954E-04  7.59560E+02
   6 13 19  5.44099E-05  7.60270E+02
   6 14 14  1.89491E-04  7.28040E+02
   6 14 17  4.91391E-05  7.52680E+02
   6 14 18  4.46578E-04  7.60870E+02
   6 14 19  2.00486E-05  7.61580E+02
   6 17 17  5.48474E-06  7.77320E+02
   6 17 18  2.74237E-05  7.85510E+02
   6 17 19  3.65633E-06  7.86220E+02
   6 18 19  1.82819E-05  7.94410E+02
   7  8  0  2.49033E-05  2.13900E+02
   7  9  0  2.62304E-04  2.37500E+02
   7 10  0  3.15146E-04  6.03420E+02
   7 13  0  9.81626E-05  7.19820E+02
   7 14  0  8.10751E-04  7.21130E+02
   7 17  0  3.91178E-05  7.45770E+02
   7  8 10  2.74654E-02  5.56300E+01
   7  8 11  1.92200E-02  9.68800E+01
   7  8 12  1.18206E-01  1.05780E+02
   7  8 13  1.22421E-02  1.72030E+02
   7  8 14  8.60260E-03  1.73340E+02
   7  8 17  2.55490E-03  1.97980E+02
   7  8 18  6.44219E-04  2.06170E+02
   7  8 19  3.22967E-03  2.06880E+02
   7  9 10  1.24785E-01  6.55700E+01
   7  9 11  1.28111E-01  1.06820E+02
   7  9 12  2.59733E-01  1.15720E+02
   7  9 13  4.53504E-02  1.81970E+02
   7  9 14  7.88583E-02  1.83280E+02
   7  9 17  1.43350E-02  2.07920E+02
   7  9 18  4.33872E-03  2.16110E+02
   7  9 19  7.82851E-03  2.16820E+02
   7 10 10  8.56645E-04  4.45150E+02
   7 10 11  1.25215E-03  4.86400E+02
   7 10 12  1.81260E-02  4.95300E+02
   7 10 13  9.92057E-04  5.61550E+02
   7 10 14  1.09956E-03  5.62860E+02
   7 10 17  1.59077E-04  5.87500E+02
   7 10 18  3.86959E-05  5.95690E+02
   7 10 19  4.60032E-04  5.96400E+02
   7 11 11  2.01078E-04  5.27650E+02
   7 11 12  1.89930E-02  5.36550E+02
   7 11 13  5.12947E-04  6.02800E+02
   7 11 14  2.73504E-03  6.04110E+02
   7 11 17  1.00537E-04  6.28750E+02
   7 11 18  1.23110E-05  6.36940E+02
   7 11 19  4.86290E-04  6.37650E+02
   7 12 12  2.42588E-02  5.45450E+02
   7 12 13  2.75761E-02  6.11700E+02
   7 12 14  3.75489E-02  6.13010E+02
   7 12 17  1.67918E-03  6.37650E+02
   7 12 18  5.85847E-04  6.45840E+02
   7 12 19  1.44099E-03  6.46550E+02
   7 13 13  1.53470E-04  6.77950E+02
   7 13 14  1.47192E-03  6.79260E+02
   7 13 17  4.76734E-05  7.03900E+02
   7 13 18  8.48970E-06  7.12090E+02
   7 13 19  5.16583E-04  7.12800E+02
   7 14 14  8.69299E-04  6.80570E+02
   7 14 17  5.05202E-05  7.05210E+02
   7 14 18  4.06475E-05  7.13400E+02
   7 14 19  6.22512E-04  7.14110E+02
   7 17 17  3.74216E-06  7.29850E+02
   7 17 18  1.60377E-06  7.38040E+02
   7 17 19  2.56607E-05  7.38750E+02
   7 18 19  9.08820E-06  7.46940E+02
   7 19 19  8.55365E-06  7.47650E+02
   8 11  0  1.11899E-03  4.30770E+02
   8 12  0  1.82228E-04  4.39670E+02
   8 18  0  4.44276E-05  5.40060E+02
   8 19  0  6.87213E-06  5.40770E+02
   8 10 10  2.12687E-04  2.31250E+02
   8 10 11  8.05343E-03  2.72500E+02
   8 10 12  7.18535E-03  2.81400E+02
   8 10 13  1.24792E-01  3.47650E+02
   8 10 14  1.91357E-02  3.48960E+02
   8 10 17  4.02368E-05  3.73600E+02
   8 10 18  2.29931E-04  3.81790E+02
   8 10 19  1.49457E-04  3.82500E+02
   8 11 11  1.68434E-03  3.13750E+02
   8 11 12  1.96888E-02  3.22650E+02
   8 11 13  9.56848E-02  3.88900E+02
   8 11 14  8.46180E-03  3.90210E+02
