 PENELOPE (v. 2014)  Material data file ...............
 Material:                 Bi_W_0.49_0.31                                
 Mass density = 3.61359847E+00 g/cm**3
 Number of elements in the molecule =  4
   atomic number =  1,  atoms/molecule = 1.00000000E+00
   atomic number =  6,  atoms/molecule = 4.99982168E-01
   atomic number = 83,  atoms/molecule = 8.22198548E-02
   atomic number = 74,  atoms/molecule = 5.91266686E-02
 Mean excitation energy = 3.92448977E+02 eV
 Number of oscillators = 36 (E/P inelastic model)
   1  1.60138391E+00  0.00000000E+00  1.17059793E+01   0  30
   2  2.16440405E+00  1.48598340E+01  2.95612761E+01   0  30
   3  2.00473192E+00  3.65161878E+01  7.05173114E+01   0  30
   4  6.11572466E-01  1.03392575E+02  1.98427440E+02   0  30
   5  6.57758838E-01  1.65000000E+02  3.20217074E+02  83  16
   6  1.64439710E-01  1.67000000E+02  3.24053662E+02  83  30
   7  4.93319129E-01  1.70000000E+02  3.29902906E+02  83  15
   8  3.54760012E-01  2.48000000E+02  4.81228923E+02  74  14
   9  2.36506674E-01  2.61000000E+02  5.06445824E+02  74  13
  10  9.99964336E-01  2.88000000E+02  5.58873110E+02   6   1
  11  2.36506674E-01  4.28000000E+02  8.30479814E+02  74  12
  12  4.93319129E-01  4.48000000E+02  8.69294966E+02  83  14
  13  3.28879419E-01  4.72000000E+02  9.15857528E+02  83  13
  14  1.18253337E-01  4.95000000E+02  9.60478949E+02  74  11
  15  1.18253337E-01  5.99000000E+02  1.16227520E+03  74  10
  16  3.28879419E-01  6.87000000E+02  1.33303052E+03  83  12
  17  1.64439710E-01  8.13000000E+02  1.57751112E+03  83  11
  18  1.64439710E-01  9.46000000E+02  1.83557784E+03  83  10
  19  3.54760012E-01  1.81100000E+03  3.51398473E+03  74   9
  20  2.36506674E-01  1.87400000E+03  3.63622604E+03  74   8
  21  2.36506674E-01  2.28300000E+03  4.42983066E+03  74   7
  22  1.18253337E-01  2.57700000E+03  5.00029401E+03  74   6
  23  4.93319129E-01  2.58800000E+03  5.02164004E+03  83   9
  24  3.28879419E-01  2.69600000E+03  5.23119731E+03  83   8
  25  1.18253337E-01  2.82300000E+03  5.47762114E+03  74   5
  26  3.28879419E-01  3.18500000E+03  6.18003034E+03  83   7
  27  1.64439710E-01  3.70400000E+03  7.18707342E+03  83   6
  28  1.64439710E-01  4.00700000E+03  7.77500076E+03  83   5
  29  2.36506674E-01  1.02090000E+04  1.98090786E+04  74   4
  30  1.18253337E-01  1.15460000E+04  2.24033323E+04  74   3
  31  1.18253337E-01  1.21030000E+04  2.34841097E+04  74   2
  32  3.28879419E-01  1.34260000E+04  2.60511988E+04  83   4
  33  1.64439710E-01  1.57190000E+04  3.05004313E+04  83   3
  34  1.64439710E-01  1.63960000E+04  3.18140512E+04  83   2
  35  1.18253337E-01  6.95290000E+04  1.34910902E+05  74   1
  36  1.64439710E-01  9.05340000E+04  1.75668047E+05  83   1
 Number of shells = 36 (Compton IA model)
   1  1.60138391E+00  0.00000000E+00  1.13579144E+00   0  30
   2  2.16440405E+00  1.48598340E+01  8.35475838E-01   0  30
   3  2.00473192E+00  3.65161878E+01  1.74236975E-01   0  30
   4  6.11572466E-01  1.03392575E+02  2.60763939E-01   0  30
   5  6.57758838E-01  1.65000000E+02  5.96653000E-02  83  16
   6  1.64439710E-01  1.67000000E+02  3.13663000E-01  83  30
   7  4.93319129E-01  1.70000000E+02  5.88973000E-02  83  15
   8  3.54760012E-01  2.48000000E+02  8.82944000E-02  74  14
   9  2.36506674E-01  2.61000000E+02  8.63992000E-02  74  13
  10  9.99964336E-01  2.88000000E+02  1.53080000E-01   6   1
  11  2.36506674E-01  4.28000000E+02  1.12642000E-01  74  12
  12  4.93319129E-01  4.48000000E+02  7.20407000E-02  83  14
  13  3.28879419E-01  4.72000000E+02  7.02791000E-02  83  13
  14  1.18253337E-01  4.95000000E+02  1.05521000E-01  74  11
  15  1.18253337E-01  5.99000000E+02  1.67046000E-01  74  10
  16  3.28879419E-01  6.87000000E+02  9.38578000E-02  83  12
  17  1.64439710E-01  8.13000000E+02  8.66147000E-02  83  11
  18  1.64439710E-01  9.46000000E+02  1.37716000E-01  83  10
  19  3.54760012E-01  1.81100000E+03  3.30808000E-02  74   9
  20  2.36506674E-01  1.87400000E+03  3.23731000E-02  74   8
  21  2.36506674E-01  2.28300000E+03  4.99025000E-02  74   7
  22  1.18253337E-01  2.57700000E+03  4.67288000E-02  74   6
  23  4.93319129E-01  2.58800000E+03  2.86176000E-02  83   9
  24  3.28879419E-01  2.69600000E+03  2.78438000E-02  83   8
  25  1.18253337E-01  2.82300000E+03  7.95533000E-02  74   5
  26  3.28879419E-01  3.18500000E+03  4.31758000E-02  83   7
  27  1.64439710E-01  3.70400000E+03  3.96476000E-02  83   6
  28  1.64439710E-01  4.00700000E+03  6.77728000E-02  83   5
  29  2.36506674E-01  1.02090000E+04  1.95294000E-02  74   4
  30  1.18253337E-01  1.15460000E+04  1.76536000E-02  74   3
  31  1.18253337E-01  1.21030000E+04  3.60624000E-02  74   2
  32  3.28879419E-01  1.34260000E+04  1.71381000E-02  83   4
  33  1.64439710E-01  1.57190000E+04  1.50009000E-02  83   3
  34  1.64439710E-01  1.63960000E+04  3.09068000E-02  83   2
  35  1.18253337E-01  6.95290000E+04  1.01492000E-02  74   1
  36  1.64439710E-01  9.05340000E+04  8.67109000E-03  83   1
 *** RELAX:  Z =  1,  no. of shells =  1,  no. of transitions =    0
   1 1s1/2 1  1.36000E+01  0.00000E+00  8.48807E-01
 *** RELAX:  Z =  6,  no. of shells =  3,  no. of transitions =    8
   1 1s1/2 2  2.88000E+02  6.14394E-02  1.53080E-01
   2 2s1/2 2  1.65900E+01  0.00000E+00  8.03154E-01
   3 2p1/2 2  1.12600E+01  0.00000E+00  4.88373E-01
   1  3  0  5.61488E-04  2.77000E+02
   1  4  0  1.12060E-03  2.77000E+02
   1  2  2  4.13609E-01  2.55890E+02
   1  2  3  1.36190E-01  2.64460E+02
   1  2  4  2.71099E-01  2.64470E+02
   1  3  3  4.20748E-03  2.73030E+02
   1  3  4  1.10012E-01  2.73040E+02
   1  4  4  6.32008E-02  2.73050E+02
 *** RELAX:  Z = 83,  no. of shells = 24,  no. of transitions = 1868
   1 1s1/2 2  9.05340E+04  6.36000E+01  8.67109E-03
   2 2s1/2 2  1.63960E+04  1.23000E+01  3.09068E-02
   3 2p1/2 2  1.57190E+04  6.22000E+00  1.50009E-02
   4 2p3/2 4  1.34260E+04  6.27000E+00  1.71381E-02
   5 3s1/2 2  4.00700E+03  1.52000E+01  6.77728E-02
   6 3p1/2 2  3.70400E+03  1.07000E+01  3.96476E-02
   7 3p3/2 4  3.18500E+03  8.60000E+00  4.31758E-02
   8 3d3/2 4  2.69600E+03  2.58000E+00  2.78438E-02
   9 3d5/2 6  2.58800E+03  2.58000E+00  2.86176E-02
  10 4s1/2 2  9.46000E+02  9.60000E+00  1.37716E-01
  11 4p1/2 2  8.13000E+02  7.20000E+00  8.66147E-02
  12 4p3/2 4  6.87000E+02  5.95000E+00  9.38578E-02
  13 4d3/2 4  4.72000E+02  3.80000E+00  7.02791E-02
  14 4d5/2 6  4.48000E+02  3.80000E+00  7.20407E-02
  15 4f5/2 6  1.70000E+02  2.20000E-01  5.88973E-02
  17 5s1/2 2  1.67000E+02  2.81551E+01  3.13663E-01
  16 4f7/2 8  1.65000E+02  2.00000E-01  5.96653E-02
  18 5p1/2 2  1.25000E+02  8.17337E+00  2.07534E-01
  19 5p3/2 4  1.01000E+02  1.50691E+01  2.27949E-01
  20 5d3/2 4  3.40000E+01  0.00000E+00  2.06973E-01
  21 5d5/2 6  3.20000E+01  0.00000E+00  2.14714E-01
  24 6s1/2 2  1.20000E+01  0.00000E+00  9.50956E-01
  25 6p1/2 2  7.29000E+00  0.00000E+00  7.03753E-01
  26 6p3/2 1  7.29000E+00  0.00000E+00  8.13801E-01
   1  3  0  2.82810E-01  7.48162E+04
   1  4  0  4.72910E-01  7.71092E+04
   1  6  0  5.28820E-02  8.68357E+04
   1  7  0  1.02490E-01  8.73441E+04
   1  8  0  1.48030E-03  8.78622E+04
   1  9  0  1.78200E-03  8.78622E+04
   1 11  0  1.26800E-02  9.00326E+04
   1 12  0  2.49800E-02  9.01628E+04
   1 13  0  3.98030E-04  9.03671E+04
   1 14  0  4.78580E-04  9.03914E+04
   1 18  0  2.95940E-03  9.07089E+04
   1 19  0  5.69621E-03  9.07345E+04
   1 20  0  5.54281E-05  9.07966E+04
   1 21  0  6.51581E-05  9.07998E+04
   1 25  0  1.19860E-04  9.08234E+04
   1  2  2  4.14149E-03  5.80800E+04
   1  2  3  6.71230E-03  5.86880E+04
   1  2  4  3.50886E-03  6.10310E+04
   1  2  5  1.67712E-03  7.04821E+04
   1  2  6  1.45261E-03  7.07633E+04
   1  2  7  8.28439E-04  7.12891E+04
   1  2  8  7.03356E-05  7.17580E+04
   1  2  9  5.12118E-05  7.18700E+04
   1  2 10  4.24565E-04  7.35326E+04
   1  2 11  3.59713E-04  7.36566E+04
   1  2 12  2.04981E-04  7.37868E+04
   1  2 13  1.87945E-05  7.39911E+04
   1  2 14  1.34791E-05  7.40154E+04
   1  2 15  4.74630E-08  7.42821E+04
   1  2 16  4.74630E-08  7.42878E+04
   1  2 17  9.26952E-05  7.42891E+04
   1  2 18  7.09554E-05  7.43329E+04
   1  2 19  3.92013E-05  7.43585E+04
   1  2 20  2.46807E-06  7.44206E+04
   1  2 21  1.70865E-06  7.44238E+04
   1  3  3  3.44309E-04  5.92960E+04
   1  3  4  6.11717E-03  6.16390E+04
   1  3  5  1.18325E-03  7.10901E+04
   1  3  6  1.30762E-04  7.13713E+04
   1  3  7  1.20966E-03  7.18971E+04
   1  3  8  7.22398E-05  7.23660E+04
   1  3  9  1.85212E-04  7.24780E+04
   1  3 10  2.90197E-04  7.41406E+04
   1  3 11  3.14204E-05  7.42646E+04
   1  3 12  2.87305E-04  7.43948E+04
   1  3 13  1.85103E-05  7.45991E+04
   1  3 14  4.77007E-05  7.46234E+04
   1  3 15  5.22107E-07  7.48901E+04
   1  3 16  8.06877E-07  7.48958E+04
   1  3 17  6.28906E-05  7.48971E+04
   1  3 18  6.17033E-06  7.49409E+04
   1  3 19  5.43927E-05  7.49665E+04
   1  3 20  2.42054E-06  7.50286E+04
   1  3 21  6.07531E-06  7.50318E+04
   1  4  4  2.61009E-03  6.39820E+04
   1  4  5  5.59384E-04  7.34331E+04
   1  4  6  1.09201E-03  7.37143E+04
   1  4  7  1.06638E-03  7.42401E+04
   1  4  8  2.05093E-04  7.47090E+04
   1  4  9  1.69628E-04  7.48210E+04
   1  4 10  1.33945E-04  7.64836E+04
   1  4 11  2.59193E-04  7.66076E+04
   1  4 12  2.55497E-04  7.67378E+04
   1  4 13  5.32052E-05  7.69421E+04
   1  4 14  4.38561E-05  7.69664E+04
   1  4 15  9.01793E-07  7.72331E+04
   1  4 16  9.49239E-07  7.72388E+04
   1  4 17  2.88570E-05  7.72401E+04
   1  4 18  5.06426E-05  7.72839E+04
   1  4 19  4.85051E-05  7.73095E+04
   1  4 20  6.97700E-06  7.73716E+04
   1  4 21  5.60069E-06  7.73748E+04
   1  5  5  1.67017E-04  8.28842E+04
   1  5  6  2.56528E-04  8.31654E+04
   1  5  7  1.33183E-04  8.36912E+04
   1  5  8  1.10114E-05  8.41601E+04
   1  5  9  7.49896E-06  8.42721E+04
   1  5 10  8.42939E-05  8.59347E+04
   1  5 11  6.35499E-05  8.60587E+04
   1  5 12  3.30340E-05  8.61889E+04
   1  5 13  2.94277E-06  8.63932E+04
   1  5 14  1.99330E-06  8.64175E+04
   1  5 17  1.83684E-05  8.66912E+04
   1  5 18  1.25301E-05  8.67350E+04
   1  5 19  6.31237E-06  8.67606E+04
   1  5 20  3.79699E-07  8.68227E+04
   1  5 21  2.37306E-07  8.68259E+04
   1  6  6  1.20083E-05  8.34466E+04
   1  6  7  2.22271E-04  8.39724E+04
   1  6  8  1.12963E-05  8.44413E+04
   1  6  9  2.48691E-05  8.45533E+04
   1  6 10  6.29336E-05  8.62159E+04
   1  6 11  5.74291E-06  8.63399E+04
   1  6 12  5.31096E-05  8.64701E+04
   1  6 13  2.94278E-06  8.66744E+04
   1  6 14  6.45503E-06  8.66987E+04
   1  6 15  4.74636E-08  8.69654E+04
   1  6 16  9.49240E-08  8.69711E+04
   1  6 17  1.36217E-05  8.69724E+04
   1  6 18  1.13908E-06  8.70162E+04
   1  6 19  1.00620E-05  8.70418E+04
   1  6 20  3.79700E-07  8.71039E+04
   1  6 21  8.06858E-07  8.71071E+04
   1  7  7  1.10073E-04  8.44982E+04
   1  7  8  3.36511E-05  8.49671E+04
   1  7  9  2.69113E-05  8.50791E+04
   1  7 10  3.19430E-05  8.67417E+04
   1  7 11  5.30647E-05  8.68657E+04
   1  7 12  5.28255E-05  8.69959E+04
   1  7 13  8.78083E-06  8.72002E+04
   1  7 14  7.02462E-06  8.72245E+04
   1  7 15  1.42395E-07  8.74912E+04
   1  7 16  1.42395E-07  8.74969E+04
   1  7 17  6.88209E-06  8.74982E+04
   1  7 18  1.03945E-05  8.75420E+04
   1  7 19  1.00145E-05  8.75676E+04
   1  7 20  1.13910E-06  8.76297E+04
   1  7 21  9.01807E-07  8.76329E+04
   1  8  8  9.49258E-08  8.54360E+04
   1  8  9  3.84458E-06  8.55480E+04
   1  8 10  2.65798E-06  8.72106E+04
   1  8 11  2.61046E-06  8.73346E+04
   1  8 12  7.64134E-06  8.74648E+04
   1  8 13  4.74645E-08  8.76691E+04
   1  8 14  9.49258E-07  8.76934E+04
   1  8 17  5.69551E-07  8.79671E+04
   1  8 18  5.22104E-07  8.80109E+04
   1  8 19  1.42396E-06  8.80365E+04
   1  8 21  1.42396E-07  8.81018E+04
   1  9  9  9.01799E-07  8.56600E+04
   1  9 10  1.80360E-06  8.73226E+04
   1  9 11  5.50571E-06  8.74466E+04
   1  9 12  6.07519E-06  8.75768E+04
   1  9 13  9.49245E-07  8.77811E+04
   1  9 14  4.74639E-07  8.78054E+04
   1  9 17  3.79702E-07  8.80791E+04
   1  9 18  1.04419E-06  8.81229E+04
   1  9 19  1.13909E-06  8.81485E+04
   1  9 20  1.42394E-07  8.82106E+04
   1  9 21  4.74639E-08  8.82138E+04
   1 10 10  1.06316E-05  8.89851E+04
   1 10 11  1.56148E-05  8.91091E+04
   1 10 12  7.92645E-06  8.92394E+04
   1 10 13  7.11929E-07  8.94436E+04
   1 10 14  4.74641E-07  8.94680E+04
   1 10 17  4.65139E-06  8.97417E+04
   1 10 18  3.08513E-06  8.97855E+04
   1 10 19  1.51875E-06  8.98111E+04
   1 10 20  9.49250E-08  8.98732E+04
   1 10 21  4.74641E-08  8.98764E+04
   1 11 11  6.64466E-07  8.92331E+04
   1 11 12  1.26724E-05  8.93634E+04
   1 11 13  6.64466E-07  8.95676E+04
   1 11 14  1.42391E-06  8.95920E+04
   1 11 17  3.36979E-06  8.98657E+04
   1 11 18  2.84761E-07  8.99095E+04
   1 11 19  2.42045E-06  8.99351E+04
   1 11 20  9.49227E-08  8.99972E+04
   1 11 21  1.89836E-07  9.00004E+04
   1 12 12  6.27830E-06  8.94937E+04
   1 12 13  1.96774E-06  8.96979E+04
   1 12 14  1.54615E-06  8.97222E+04
   1 12 15  4.68546E-08  8.99890E+04
   1 12 16  4.68546E-08  8.99947E+04
   1 12 17  1.68675E-06  8.99960E+04
   1 12 18  2.43643E-06  9.00397E+04
   1 12 19  2.38943E-06  9.00654E+04
   1 12 20  2.81111E-07  9.01275E+04
   1 12 21  1.87403E-07  9.01307E+04
   1 13 14  2.37308E-07  8.99264E+04
   1 13 17  1.42394E-07  9.02002E+04
   1 13 18  1.42394E-07  9.02439E+04
   1 13 19  3.79702E-07  9.02696E+04
   1 13 21  4.74638E-08  9.03349E+04
   1 14 14  5.01368E-08  8.99508E+04
   1 14 17  1.00270E-07  9.02245E+04
   1 14 18  3.00803E-07  9.02683E+04
   1 14 19  3.00803E-07  9.02939E+04
   1 14 20  5.01368E-08  9.03560E+04
   1 17 17  5.30344E-07  9.04983E+04
   1 17 18  6.74975E-07  9.05420E+04
   1 17 19  3.37483E-07  9.05677E+04
   1 18 18  4.56709E-08  9.05858E+04
   1 18 19  4.56709E-07  9.06114E+04
   1 18 21  4.56709E-08  9.06767E+04
   1 19 19  2.43247E-07  9.06371E+04
   1 19 20  4.86517E-08  9.06992E+04
   1 19 21  4.86517E-08  9.07024E+04
   2  3  0  1.18120E-05  6.08000E+02
   2  4  0  3.32370E-03  2.95100E+03
   2  6  0  3.46070E-02  1.26914E+04
   2  7  0  3.70550E-02  1.32100E+04
   2  8  0  1.28210E-03  1.36989E+04
   2  9  0  1.91790E-03  1.38068E+04
   2 11  0  8.95660E-03  1.55766E+04
   2 12  0  1.04990E-02  1.57068E+04
   2 13  0  1.99110E-04  1.59111E+04
   2 14  0  3.15490E-04  1.59354E+04
   2 18  0  1.80350E-03  1.62529E+04
   2 19  0  2.08580E-03  1.62785E+04
   2 20  0  2.48950E-05  1.63406E+04
   2 21  0  3.91230E-05  1.63438E+04
   2 25  0  8.60050E-05  1.63674E+04
   2  3 13  4.65666E-03  1.43050E+02
   2  3 14  6.16915E-03  1.67390E+02
   2  3 15  1.40990E-02  4.34130E+02
   2  3 16  1.86836E-02  4.39830E+02
   2  3 17  4.45468E-03  4.41140E+02
   2  3 18  3.27266E-03  4.84880E+02
   2  3 19  2.94068E-03  5.10540E+02
   2  3 20  6.12915E-04  5.72630E+02
   2  3 21  8.05627E-04  5.75830E+02
   2  4  8  2.33072E-01  2.53000E+02
   2  4  9  2.92387E-01  3.65000E+02
   2  4 10  1.85206E-02  2.02757E+03
   2  4 11  7.32957E-03  2.15157E+03
   2  4 12  1.09852E-02  2.28184E+03
   2  4 13  3.10826E-02  2.48605E+03
   2  4 14  3.68251E-02  2.51039E+03
   2  4 15  2.14603E-02  2.77713E+03
   2  4 16  2.66939E-02  2.78283E+03
   2  4 17  3.84420E-03  2.78414E+03
   2  4 18  1.41849E-03  2.82788E+03
   2  4 19  2.08263E-03  2.85354E+03
   2  4 20  3.74981E-03  2.91563E+03
   2  4 21  4.27857E-03  2.91883E+03
   2  5  5  5.20847E-03  8.42820E+03
   2  5  6  1.07421E-02  8.70940E+03
   2  5  7  1.66946E-02  9.23520E+03
   2  5  8  1.22950E-02  9.70410E+03
   2  5  9  1.56597E-02  9.81610E+03
   2  5 10  2.24411E-03  1.14787E+04
   2  5 11  2.62748E-03  1.16027E+04
   2  5 12  4.03146E-03  1.17329E+04
   2  5 13  2.72107E-03  1.19372E+04
   2  5 14  3.43891E-03  1.19615E+04
   2  5 15  2.29890E-04  1.22282E+04
   2  5 16  2.50629E-04  1.22339E+04
   2  5 17  4.76840E-04  1.22352E+04
   2  5 18  5.16197E-04  1.22790E+04
   2  5 19  7.65861E-04  1.23046E+04
   2  5 20  3.47551E-04  1.23667E+04
   2  5 21  4.27024E-04  1.23699E+04
   2  6  6  1.97716E-05  8.99060E+03
   2  6  7  2.09735E-04  9.51640E+03
   2  6  8  6.68164E-04  9.98530E+03
   2  6  9  5.33323E-03  1.00973E+04
   2  6 10  1.82448E-03  1.17599E+04
   2  6 11  2.71381E-06  1.18839E+04
   2  6 12  4.24510E-05  1.20141E+04
   2  6 13  1.29301E-04  1.22184E+04
   2  6 14  7.50341E-04  1.22427E+04
   2  6 15  8.47077E-05  1.25094E+04
   2  6 16  2.94629E-04  1.25151E+04
   2  6 17  3.65004E-04  1.25164E+04
   2  6 18  3.87673E-07  1.25602E+04
   2  6 19  7.75351E-06  1.25858E+04
   2  6 20  1.64759E-05  1.26479E+04
   2  6 21  8.64536E-05  1.26511E+04
   2  7  7  5.71631E-04  1.00422E+04
   2  7  8  1.74689E-03  1.05111E+04
   2  7  9  1.06363E-03  1.06231E+04
   2  7 10  2.78761E-03  1.22857E+04
   2  7 11  5.07866E-05  1.24097E+04
   2  7 12  2.09345E-04  1.25399E+04
   2  7 13  1.59920E-04  1.27442E+04
   2  7 14  7.83112E-05  1.27685E+04
   2  7 15  1.36271E-04  1.30352E+04
   2  7 16  1.14173E-04  1.30409E+04
   2  7 17  5.55743E-04  1.30422E+04
   2  7 18  9.88589E-06  1.30860E+04
   2  7 19  3.76055E-05  1.31116E+04
   2  7 20  1.72519E-05  1.31737E+04
   2  7 21  7.94732E-06  1.31769E+04
   2  8  8  7.18912E-04  1.09800E+04
   2  8  9  2.11261E-02  1.10920E+04
   2  8 10  1.86763E-03  1.27546E+04
   2  8 11  1.96743E-04  1.28786E+04
   2  8 12  4.70830E-04  1.30088E+04
   2  8 13  3.10723E-04  1.32131E+04
   2  8 14  3.23652E-03  1.32374E+04
   2  8 15  2.43649E-04  1.35041E+04
   2  8 16  6.70673E-04  1.35098E+04
   2  8 17  3.65188E-04  1.35111E+04
   2  8 18  4.01245E-05  1.35549E+04
   2  8 19  9.14867E-05  1.35805E+04
   2  8 20  3.95436E-05  1.36426E+04
   2  8 21  3.76827E-04  1.36458E+04
   2  9  9  5.82878E-03  1.12040E+04
   2  9 10  2.41411E-03  1.28666E+04
   2  9 11  1.15516E-03  1.29906E+04
   2  9 12  2.91739E-04  1.31208E+04
   2  9 13  3.12998E-03  1.33251E+04
   2  9 14  1.88592E-03  1.33494E+04
   2  9 15  7.38966E-04  1.36161E+04
   2  9 16  5.56730E-04  1.36218E+04
   2  9 17  4.74722E-04  1.36231E+04
   2  9 18  2.21761E-04  1.36669E+04
   2  9 19  5.69908E-05  1.36925E+04
   2  9 20  3.71986E-04  1.37546E+04
   2  9 21  2.22151E-04  1.37578E+04
   2 10 10  2.27954E-04  1.45291E+04
   2 10 11  4.47189E-04  1.46531E+04
   2 10 12  6.75533E-04  1.47834E+04
   2 10 13  4.15011E-04  1.49876E+04
   2 10 14  5.28793E-04  1.50120E+04
   2 10 15  2.92699E-05  1.52787E+04
   2 10 16  3.04328E-05  1.52844E+04
   2 10 17  9.55638E-05  1.52857E+04
   2 10 18  8.78075E-05  1.53295E+04
   2 10 19  1.28321E-04  1.53551E+04
   2 10 20  5.31123E-05  1.54172E+04
   2 10 21  6.57114E-05  1.54204E+04
   2 11 12  1.02733E-05  1.49074E+04
   2 11 13  3.37276E-05  1.51116E+04
   2 11 14  1.69228E-04  1.51360E+04
   2 11 15  1.18252E-05  1.54027E+04
   2 11 16  4.65227E-05  1.54084E+04
   2 11 17  8.95522E-05  1.54097E+04
   2 11 19  1.93846E-06  1.54791E+04
   2 11 20  4.26450E-06  1.55412E+04
   2 11 21  1.95776E-05  1.55444E+04
   2 12 12  1.84146E-05  1.50377E+04
   2 12 13  4.84603E-05  1.52419E+04
   2 12 14  2.67499E-05  1.52662E+04
   2 12 15  2.83008E-05  1.55330E+04
   2 12 16  2.32602E-05  1.55387E+04
   2 12 17  1.34720E-04  1.55400E+04
   2 12 18  1.93845E-06  1.55837E+04
   2 12 19  6.59050E-06  1.56094E+04
   2 12 20  5.42749E-06  1.56715E+04
   2 12 21  2.90757E-06  1.56747E+04
   2 13 13  3.10146E-05  1.54461E+04
   2 13 14  5.25110E-04  1.54704E+04
   2 13 15  3.64412E-05  1.57372E+04
   2 13 16  7.57887E-05  1.57429E+04
   2 13 17  8.12173E-05  1.57442E+04
   2 13 18  6.78439E-06  1.57879E+04
   2 13 19  9.69191E-06  1.58136E+04
   2 13 20  7.75345E-06  1.58757E+04
   2 13 21  6.20282E-05  1.58789E+04
   2 14 14  1.63789E-04  1.54948E+04
   2 14 15  8.83905E-05  1.57615E+04
   2 14 16  7.40432E-05  1.57672E+04
   2 14 17  1.03903E-04  1.57685E+04
   2 14 18  3.27587E-05  1.58123E+04
   2 14 19  5.42753E-06  1.58379E+04
   2 14 20  6.33855E-05  1.59000E+04
   2 14 21  3.89623E-05  1.59032E+04
   2 15 15  1.08770E-06  1.60283E+04
   2 15 16  2.02320E-05  1.60340E+04
   2 15 17  6.09114E-06  1.60353E+04
   2 15 18  2.39295E-06  1.60790E+04
   2 15 19  5.87366E-06  1.61047E+04
   2 15 20  4.78592E-06  1.61668E+04
   2 15 21  1.10946E-05  1.61700E+04
   2 16 16  4.79406E-06  1.60397E+04
   2 16 17  6.95144E-06  1.60410E+04
   2 16 18  1.03079E-05  1.60847E+04
   2 16 19  5.27359E-06  1.61104E+04
   2 16 20  1.05475E-05  1.61725E+04
   2 16 21  1.05475E-05  1.61757E+04
   2 17 17  1.60801E-05  1.60423E+04
   2 17 18  2.81419E-05  1.60860E+04
   2 17 19  4.08192E-05  1.61117E+04
   2 17 20  1.66991E-05  1.61738E+04
   2 17 21  2.04097E-05  1.61770E+04
   2 18 19  7.43337E-07  1.61554E+04
   2 18 20  1.48668E-06  1.62175E+04
   2 18 21  7.43337E-06  1.62207E+04
   2 19 19  1.12296E-06  1.61811E+04
   2 19 20  2.24588E-06  1.62432E+04
   2 19 21  1.12296E-06  1.62464E+04
   2 20 20  5.67508E-07  1.63053E+04
   2 20 21  7.37749E-06  1.63085E+04
   2 21 21  2.32600E-06  1.63117E+04
   3  4  0  1.24020E-05  2.34300E+03
   3  5  0  8.94229E-03  1.17124E+04
   3  7  0  3.76200E-04  1.25345E+04
   3  8  0  3.27820E-01  1.30236E+04
   3 10  0  2.32000E-03  1.48446E+04
   3 12  0  1.05370E-04  1.50988E+04
   3 13  0  6.76889E-02  1.53030E+04
   3 15  0  2.99050E-04  1.55941E+04
   3 17  0  5.04370E-04  1.56011E+04
   3 19  0  2.13840E-05  1.56705E+04
   3 20  0  8.99449E-03  1.57326E+04
   3 24  0  7.12399E-05  1.57503E+04
   3  4 10  5.01037E-03  1.41957E+03
   3  4 11  3.63688E-02  1.54357E+03
   3  4 12  9.88233E-03  1.67384E+03
   3  4 13  3.64027E-02  1.87805E+03
   3  4 14  1.24713E-02  1.90239E+03
   3  4 15  1.53438E-03  2.16913E+03
   3  4 16  2.28227E-03  2.17483E+03
   3  4 17  1.00390E-03  2.17614E+03
   3  4 18  6.57600E-03  2.21988E+03
   3  4 19  1.83052E-03  2.24554E+03
   3  4 20  4.47190E-03  2.30763E+03
   3  4 21  1.50534E-03  2.31083E+03
   3  5  5  5.47962E-04  7.82020E+03
   3  5  6  1.95976E-02  8.10140E+03
   3  5  7  1.81942E-03  8.62720E+03
   3  5  8  3.12560E-03  9.09610E+03
   3  5  9  1.70274E-03  9.20810E+03
   3  5 10  2.12564E-04  1.08707E+04
   3  5 11  3.16403E-03  1.09947E+04
   3  5 12  3.93439E-04  1.11249E+04
   3  5 13  4.89889E-04  1.13291E+04
   3  5 14  2.27748E-04  1.13535E+04
   3  5 15  8.79746E-05  1.16202E+04
   3  5 16  6.16305E-05  1.16259E+04
   3  5 17  4.42119E-05  1.16272E+04
   3  5 18  5.71169E-04  1.16710E+04
   3  5 19  7.32410E-05  1.16966E+04
   3  5 20  5.93917E-05  1.17587E+04
   3  5 21  2.63481E-05  1.17619E+04
   3  6  6  2.05440E-02  8.38260E+03
   3  6  7  5.15368E-02  8.90840E+03
   3  6  8  2.66069E-02  9.37730E+03
   3  6  9  3.74259E-02  9.48930E+03
   3  6 10  5.07981E-03  1.11519E+04
   3  6 11  8.46008E-03  1.12759E+04
   3  6 12  1.22145E-02  1.14061E+04
   3  6 13  5.89261E-03  1.16103E+04
   3  6 14  8.26892E-03  1.16347E+04
   3  6 15  4.55519E-04  1.19014E+04
   3  6 16  3.92984E-04  1.19071E+04
   3  6 17  1.11374E-03  1.19084E+04
   3  6 18  1.61481E-03  1.19522E+04
   3  6 19  2.31193E-03  1.19778E+04
   3  6 20  7.53398E-04  1.20399E+04
   3  6 21  1.02800E-03  1.20431E+04
   3  7  7  1.16551E-03  9.43420E+03
   3  7  8  2.36986E-02  9.90310E+03
   3  7  9  3.46579E-03  1.00151E+04
   3  7 10  3.95667E-04  1.16777E+04
   3  7 11  8.47209E-03  1.18017E+04
   3  7 12  4.74259E-04  1.19319E+04
   3  7 13  4.42869E-03  1.21361E+04
   3  7 14  6.23868E-04  1.21605E+04
   3  7 15  1.82646E-04  1.24272E+04
   3  7 16  9.55675E-05  1.24329E+04
   3  7 17  8.35082E-05  1.24342E+04
   3  7 18  1.53442E-03  1.24780E+04
   3  7 19  8.70815E-05  1.25036E+04
   3  7 20  5.49279E-04  1.25657E+04
   3  7 21  7.50221E-05  1.25689E+04
   3  8  8  2.24585E-02  1.03720E+04
   3  8  9  8.89134E-02  1.04840E+04
   3  8 10  8.12784E-04  1.21466E+04
   3  8 11  4.23725E-03  1.22706E+04
   3  8 12  5.19737E-03  1.24008E+04
   3  8 13  8.24384E-03  1.26050E+04
   3  8 14  1.75954E-02  1.26294E+04
   3  8 15  1.58627E-03  1.28961E+04
   3  8 16  3.19707E-03  1.29018E+04
   3  8 17  1.78629E-04  1.29031E+04
   3  8 18  7.69016E-04  1.29469E+04
   3  8 19  9.68177E-04  1.29725E+04
   3  8 20  1.02451E-03  1.30346E+04
   3  8 21  2.14772E-03  1.30378E+04
   3  9  9  4.31972E-03  1.05960E+04
   3  9 10  3.55924E-04  1.22586E+04
   3  9 11  5.25697E-03  1.23826E+04
   3  9 12  6.99761E-04  1.25128E+04
   3  9 13  1.33980E-02  1.27170E+04
   3  9 14  1.55579E-03  1.27414E+04
   3  9 15  6.33255E-04  1.30081E+04
   3  9 16  2.42037E-04  1.30138E+04
   3  9 17  7.45804E-05  1.30151E+04
   3  9 18  9.20357E-04  1.30589E+04
   3  9 19  1.28171E-04  1.30845E+04
   3  9 20  1.60091E-03  1.31466E+04
   3  9 21  1.87548E-04  1.31498E+04
   3 10 10  1.96504E-05  1.39211E+04
   3 10 11  8.25250E-04  1.40451E+04
   3 10 12  8.61902E-05  1.41754E+04
   3 10 13  1.24148E-04  1.43796E+04
   3 10 14  4.73356E-05  1.44040E+04
   3 10 15  2.00965E-05  1.46707E+04
   3 10 16  1.11642E-05  1.46764E+04
   3 10 17  8.03860E-06  1.46777E+04
   3 10 18  1.49151E-04  1.47214E+04
   3 10 19  1.60770E-05  1.47471E+04
   3 10 20  1.47375E-05  1.48092E+04
   3 10 21  5.35890E-06  1.48124E+04
   3 11 11  8.27924E-04  1.41691E+04
   3 11 12  2.01353E-03  1.42994E+04
   3 11 13  9.24384E-04  1.45036E+04
   3 11 14  1.17271E-03  1.45280E+04
   3 11 15  5.93911E-05  1.47947E+04
   3 11 16  4.06381E-05  1.48004E+04
   3 11 17  1.81311E-04  1.48017E+04
   3 11 18  3.12596E-04  1.48454E+04
   3 11 19  3.81378E-04  1.48711E+04
   3 11 20  1.17900E-04  1.49332E+04
   3 11 21  1.46027E-04  1.49364E+04
   3 12 12  4.86783E-05  1.44297E+04
   3 12 13  9.78499E-04  1.46339E+04
   3 12 14  1.28174E-04  1.46582E+04
   3 12 15  3.43866E-05  1.49250E+04
   3 12 16  1.65235E-05  1.49307E+04
   3 12 17  1.83093E-05  1.49320E+04
   3 12 18  3.64858E-04  1.49757E+04
   3 12 19  1.78631E-05  1.50014E+04
   3 12 20  1.21476E-04  1.50635E+04
   3 12 21  1.56302E-05  1.50667E+04
   3 13 13  7.49834E-04  1.48381E+04
   3 13 14  2.76296E-03  1.48624E+04
   3 13 15  1.99618E-04  1.51292E+04
   3 13 16  4.06384E-04  1.51349E+04
   3 13 17  2.72423E-05  1.51362E+04
   3 13 18  1.67029E-04  1.51799E+04
   3 13 19  1.82649E-04  1.52056E+04
   3 13 20  1.85784E-04  1.52677E+04
   3 13 21  3.39398E-04  1.52709E+04
   3 14 14  1.41565E-04  1.48868E+04
   3 14 15  8.66324E-05  1.51535E+04
   3 14 16  3.39393E-05  1.51592E+04
   3 14 17  9.82487E-06  1.51605E+04
   3 14 18  2.05873E-04  1.52043E+04
   3 14 19  2.36686E-05  1.52299E+04
   3 14 20  3.32246E-04  1.52920E+04
   3 14 21  3.39393E-05  1.52952E+04
   3 15 15  4.52728E-06  1.54203E+04
   3 15 16  3.25969E-05  1.54260E+04
   3 15 17  4.52728E-06  1.54273E+04
   3 15 18  1.04133E-05  1.54710E+04
   3 15 19  6.33825E-06  1.54967E+04
   3 15 20  2.35426E-05  1.55588E+04
   3 15 21  9.96030E-06  1.55620E+04
   3 16 16  2.25270E-06  1.54317E+04
   3 16 17  2.25270E-06  1.54330E+04
   3 16 18  6.75819E-06  1.54767E+04
   3 16 19  3.15377E-06  1.55024E+04
   3 16 20  4.73076E-05  1.55645E+04
   3 16 21  4.05495E-06  1.55677E+04
   3 17 17  8.80183E-07  1.54343E+04
   3 17 18  3.21271E-05  1.54780E+04
   3 17 19  3.52079E-06  1.55037E+04
   3 17 20  3.08061E-06  1.55658E+04
   3 17 21  1.32026E-06  1.55690E+04
   3 18 18  2.91234E-05  1.55218E+04
   3 18 19  6.83946E-05  1.55474E+04
   3 18 20  2.11800E-05  1.56095E+04
   3 18 21  2.51518E-05  1.56127E+04
   3 19 19  1.89549E-06  1.55731E+04
   3 19 20  2.41672E-05  1.56352E+04
   3 19 21  2.84325E-06  1.56384E+04
   3 20 20  1.16104E-05  1.56973E+04
   3 20 21  4.10856E-05  1.57005E+04
   3 21 21  2.23280E-06  1.57037E+04
   4  5  0  1.63541E-02  9.42043E+03
   4  6  0  1.76691E-04  9.72560E+03
   4  7  0  1.59651E-04  1.02422E+04
   4  8  0  2.86032E-02  1.07311E+04
   4  9  0  2.51881E-01  1.08389E+04
   4 10  0  3.72472E-03  1.25016E+04
   4 11  0  3.99312E-05  1.26256E+04
   4 12  0  4.11832E-05  1.27558E+04
   4 13  0  5.40263E-03  1.29600E+04
   4 14  0  4.89093E-02  1.29844E+04
   4 15  0  4.52112E-05  1.32511E+04
   4 16  0  2.52191E-04  1.32568E+04
   4 17  0  8.17274E-04  1.32581E+04
   4 18  0  8.37674E-06  1.33019E+04
   4 19  0  8.76815E-06  1.33275E+04
   4 20  0  7.06844E-04  1.33896E+04
   4 21  0  6.29773E-03  1.33928E+04
   4 24  0  1.13281E-04  1.34073E+04
   4 25  0  3.71132E-07  1.34164E+04
   4  5  5  6.73318E-04  5.47720E+03
   4  5  6  3.33092E-04  5.75840E+03
   4  5  7  2.05136E-02  6.28420E+03
   4  5  8  2.64737E-03  6.75310E+03
   4  5  9  4.58174E-03  6.86510E+03
   4  5 10  2.63433E-04  8.52767E+03
   4  5 11  5.93860E-05  8.65167E+03
   4  5 12  3.23861E-03  8.78194E+03
   4  5 13  2.82634E-04  8.98615E+03
   4  5 14  4.52304E-04  9.01049E+03
   4  5 15  2.41119E-04  9.27723E+03
   4  5 16  4.23295E-04  9.28293E+03
   4  5 17  5.44745E-05  9.28424E+03
   4  5 18  1.07164E-05  9.32798E+03
   4  5 19  5.65288E-04  9.35364E+03
   4  5 20  3.21493E-05  9.41573E+03
   4  5 21  4.86706E-05  9.41893E+03
   4  6  6  2.81305E-05  6.03960E+03
   4  6  7  3.44288E-02  6.56540E+03
   4  6  8  1.59853E-03  7.03430E+03
   4  6  9  1.34196E-02  7.14630E+03
   4  6 10  6.87643E-05  8.80887E+03
   4  6 11  1.60749E-05  8.93287E+03
   4  6 12  5.64519E-03  9.06314E+03
   4  6 13  3.07210E-04  9.26735E+03
   4  6 14  2.13476E-03  9.29169E+03
   4  6 15  2.32189E-04  9.55843E+03
   4  6 16  5.80029E-04  9.56413E+03
   4  6 17  1.47348E-05  9.56544E+03
   4  6 18  3.57222E-06  9.60918E+03
   4  6 19  9.92583E-04  9.63484E+03
   4  6 20  3.88460E-05  9.69693E+03
   4  6 21  2.52284E-04  9.70013E+03
   4  7  7  4.31018E-02  7.09120E+03
   4  7  8  4.51464E-02  7.56010E+03
   4  7  9  6.05424E-02  7.67210E+03
   4  7 10  5.23524E-03  9.33467E+03
   4  7 11  7.88413E-03  9.45867E+03
   4  7 12  1.71221E-02  9.58894E+03
   4  7 13  9.39747E-03  9.79315E+03
   4  7 14  1.24372E-02  9.81749E+03
   4  7 15  8.55101E-04  1.00842E+04
   4  7 16  1.05071E-03  1.00899E+04
   4  7 17  1.14403E-03  1.00912E+04
   4  7 18  1.53164E-03  1.01350E+04
   4  7 19  3.14406E-03  1.01606E+04
   4  7 20  1.19049E-03  1.02227E+04
   4  7 21  1.52845E-03  1.02259E+04
   4  8  8  6.20562E-03  8.02900E+03
   4  8  9  1.16070E-01  8.14100E+03
   4  8 10  6.38966E-04  9.80357E+03
