 PENELOPE (v. 2014)  Material data file ...............
 Material: BORON  (5)                                                    
 Mass density = 2.37000000E+00 g/cm**3
 Number of elements in the molecule =  1
   atomic number =  5,  atoms/molecule = 1.00000000E+00
 Mean excitation energy = 7.60000000E+01 eV
 Number of oscillators =  2 (E/P inelastic model)
   1  3.00000000E+00  0.00000000E+00  2.33687034E+01   0  30
   2  2.00000000E+00  1.92000000E+02  4.45740459E+02   5   1
 Number of shells =  2 (Compton IA model)
   1  3.00000000E+00  0.00000000E+00  5.68946889E-01   0  30
   2  2.00000000E+00  1.92000000E+02  1.85913000E-01   5   1
 *** RELAX:  Z =  5,  no. of shells =  3,  no. of transitions =    2
   1 1s1/2 2  1.92000E+02  0.00000E+00  1.85913E-01
   2 2s1/2 2  1.13860E+01  0.00000E+00  1.00114E+00
   3 2p1/2 1  1.13860E+01  0.00000E+00  6.14623E-01
   1  3  0  5.70000E-04  1.83300E+02
   1  3  3  9.99430E-01  1.69000E+02
 *** Electron ionisation cross sections,  IZ =  5,  NSHELL =  1,  NDATA = 203
 4.00000E+01 0.00000E+00
 4.50000E+01 0.00000E+00
 5.00000E+01 0.00000E+00
 5.50000E+01 0.00000E+00
 6.00000E+01 0.00000E+00
 7.00000E+01 0.00000E+00
 8.00000E+01 0.00000E+00
 9.00000E+01 0.00000E+00
 1.00000E+02 0.00000E+00
 1.10000E+02 0.00000E+00
 1.25000E+02 0.00000E+00
 1.40000E+02 0.00000E+00
 1.50000E+02 0.00000E+00
 1.75000E+02 0.00000E+00
 1.92000E+02 0.00000E+00
 1.92000E+02 0.00000E+00
 1.93920E+02 1.39271E-20
 1.96583E+02 3.28223E-20
 1.99282E+02 5.14894E-20
 2.00000E+02 5.63713E-20
 2.02019E+02 6.99251E-20
 2.04793E+02 8.81262E-20
 2.07605E+02 1.06090E-19
 2.10456E+02 1.23814E-19
 2.13346E+02 1.41296E-19
 2.16276E+02 1.58535E-19
 2.19245E+02 1.75530E-19
 2.20000E+02 1.79772E-19
 2.22256E+02 1.92278E-19
 2.25308E+02 2.08779E-19
 2.28402E+02 2.25033E-19
 2.31538E+02 2.41039E-19
 2.34718E+02 2.56797E-19
 2.37941E+02 2.72307E-19
 2.41208E+02 2.87569E-19
 2.44521E+02 3.02584E-19
 2.47878E+02 3.17351E-19
 2.50000E+02 3.26454E-19
 2.51282E+02 3.31872E-19
 2.54733E+02 3.46147E-19
 2.58231E+02 3.60176E-19
 2.61777E+02 3.73962E-19
 2.65371E+02 3.87504E-19
 2.69015E+02 4.00805E-19
 2.72709E+02 4.13864E-19
 2.76454E+02 4.26684E-19
 2.80250E+02 4.39266E-19
 2.84099E+02 4.51610E-19
 2.88000E+02 4.63718E-19
 3.00000E+02 4.98631E-19
 3.03712E+02 5.08773E-19
 3.20281E+02 5.50607E-19
 3.37754E+02 5.89247E-19
 3.50000E+02 6.13381E-19
 3.56180E+02 6.24723E-19
 3.75611E+02 6.57061E-19
 3.96103E+02 6.86291E-19
 4.00000E+02 6.91343E-19
 4.17712E+02 7.12467E-19
 4.40500E+02 7.35680E-19
 4.50000E+02 7.44189E-19
 4.64532E+02 7.56018E-19
 4.89874E+02 7.73567E-19
 5.00000E+02 7.79594E-19
 5.16599E+02 7.88378E-19
 5.44782E+02 8.00492E-19
 5.50000E+02 8.02384E-19
 5.74503E+02 8.09986E-19
 6.00000E+02 8.15943E-19
 6.05845E+02 8.17061E-19
 6.38896E+02 8.21832E-19
 6.73751E+02 8.24351E-19
 7.00000E+02 8.24819E-19
 7.10508E+02 8.24710E-19
 7.49270E+02 8.23068E-19
 7.90146E+02 8.19626E-19
 8.00000E+02 8.18583E-19
 8.33252E+02 8.14516E-19
 8.78710E+02 8.07744E-19
 9.00000E+02 8.04207E-19
 9.26648E+02 7.99534E-19
 9.77201E+02 7.90026E-19
 1.00000E+03 7.85502E-19
 1.03051E+03 7.79271E-19
 1.08673E+03 7.67428E-19
 1.10000E+03 7.64587E-19
 1.14602E+03 7.54644E-19
 1.20854E+03 7.41008E-19
 1.25000E+03 7.31951E-19
 1.27447E+03 7.26620E-19
 1.34400E+03 7.11600E-19
 1.40000E+03 6.99701E-19
 1.50000E+03 6.79007E-19
 1.75000E+03 6.30848E-19
 2.00000E+03 5.88337E-19
 2.20000E+03 5.57984E-19
 2.50000E+03 5.17902E-19
 3.00000E+03 4.62711E-19
 3.50000E+03 4.19448E-19
 4.00000E+03 3.84003E-19
 4.50000E+03 3.54448E-19
 5.00000E+03 3.29308E-19
 5.50000E+03 3.07817E-19
 6.00000E+03 2.89158E-19
 7.00000E+03 2.58340E-19
 8.00000E+03 2.33958E-19
 9.00000E+03 2.14173E-19
 1.00000E+04 1.97724E-19
 1.10000E+04 1.83877E-19
 1.25000E+04 1.66692E-19
 1.40000E+04 1.52773E-19
 1.50000E+04 1.44830E-19
 1.75000E+04 1.28514E-19
 2.00000E+04 1.15896E-19
 2.20000E+04 1.07657E-19
 2.50000E+04 9.74961E-20
 3.00000E+04 8.47468E-20
 3.50000E+04 7.53393E-20
 4.00000E+04 6.80998E-20
 4.50000E+04 6.23470E-20
 5.00000E+04 5.76703E-20
 5.50000E+04 5.37869E-20
 6.00000E+04 5.05088E-20
 7.00000E+04 4.52758E-20
 8.00000E+04 4.12819E-20
 9.00000E+04 3.81323E-20
 1.00000E+05 3.55854E-20
 1.10000E+05 3.34828E-20
 1.25000E+05 3.09391E-20
 1.40000E+05 2.89262E-20
 1.50000E+05 2.78034E-20
 1.75000E+05 2.55519E-20
 2.00000E+05 2.38631E-20
 2.20000E+05 2.27920E-20
 2.50000E+05 2.15155E-20
 3.00000E+05 1.99808E-20
 3.50000E+05 1.89161E-20
 4.00000E+05 1.81466E-20
 4.50000E+05 1.75741E-20
 5.00000E+05 1.71391E-20
 5.50000E+05 1.68032E-20
 6.00000E+05 1.65415E-20
 7.00000E+05 1.61728E-20
 8.00000E+05 1.59432E-20
 9.00000E+05 1.58026E-20
 1.00000E+06 1.57216E-20
 1.10000E+06 1.56814E-20
 1.25000E+06 1.56728E-20
 1.40000E+06 1.57043E-20
 1.50000E+06 1.57399E-20
 1.75000E+06 1.58598E-20
 2.00000E+06 1.60039E-20
 2.20000E+06 1.61268E-20
 2.50000E+06 1.63149E-20
 3.00000E+06 1.66231E-20
 3.50000E+06 1.69144E-20
 4.00000E+06 1.71859E-20
 4.50000E+06 1.74378E-20
 5.00000E+06 1.76718E-20
 5.50000E+06 1.78897E-20
 6.00000E+06 1.80931E-20
 7.00000E+06 1.84627E-20
 8.00000E+06 1.87911E-20
 9.00000E+06 1.90860E-20
 1.00000E+07 1.93534E-20
 1.10000E+07 1.95979E-20
 1.25000E+07 1.99289E-20
 1.40000E+07 2.02253E-20
 1.50000E+07 2.04069E-20
 1.75000E+07 2.08151E-20
 2.00000E+07 2.11711E-20
 2.20000E+07 2.14265E-20
 2.50000E+07 2.17707E-20
 3.00000E+07 2.22634E-20
 3.50000E+07 2.26821E-20
 4.00000E+07 2.30454E-20
 4.50000E+07 2.33669E-20
 5.00000E+07 2.36548E-20
 5.50000E+07 2.39156E-20
 6.00000E+07 2.41537E-20
 7.00000E+07 2.45772E-20
 8.00000E+07 2.49434E-20
 9.00000E+07 2.52678E-20
 1.00000E+08 2.55573E-20
 1.10000E+08 2.58201E-20
 1.25000E+08 2.61724E-20
 1.40000E+08 2.64846E-20
 1.50000E+08 2.66748E-20
 1.75000E+08 2.71004E-20
 2.00000E+08 2.74690E-20
 2.20000E+08 2.77321E-20
 2.50000E+08 2.80861E-20
 3.00000E+08 2.85882E-20
 3.50000E+08 2.90153E-20
 4.00000E+08 2.93835E-20
 4.50000E+08 2.97091E-20
 5.00000E+08 3.00005E-20
 5.50000E+08 3.02640E-20
 6.00000E+08 3.05046E-20
 7.00000E+08 3.09310E-20
 8.00000E+08 3.13003E-20
 9.00000E+08 3.16261E-20
 1.00000E+09 3.19175E-20
 *** Positron ionisation cross sections,  IZ =  5,  NSHELL =  1,  NDATA = 202
 4.00000E+01 0.00000E+00
 4.50000E+01 0.00000E+00
 5.00000E+01 0.00000E+00
 5.50000E+01 0.00000E+00
 6.00000E+01 0.00000E+00
 7.00000E+01 0.00000E+00
 8.00000E+01 0.00000E+00
 9.00000E+01 0.00000E+00
 1.00000E+02 0.00000E+00
 1.10000E+02 0.00000E+00
 1.25000E+02 0.00000E+00
 1.40000E+02 0.00000E+00
 1.50000E+02 0.00000E+00
 1.75000E+02 0.00000E+00
 1.92000E+02 0.00000E+00
 1.92000E+02 0.00000E+00
 2.00000E+02 5.82114E-23
 2.01600E+02 9.13526E-23
 2.04095E+02 1.67168E-22
 2.06621E+02 2.81661E-22
 2.09177E+02 4.45850E-22
 2.11766E+02 6.71832E-22
 2.14387E+02 9.72608E-22
 2.17040E+02 1.36190E-21
 2.20000E+02 1.91023E-21
 2.22445E+02 2.46347E-21
 2.25197E+02 3.20516E-21
 2.27984E+02 4.09385E-21
 2.30806E+02 5.14418E-21
 2.33662E+02 6.37048E-21
 2.36553E+02 7.78663E-21
 2.39481E+02 9.40593E-21
 2.42444E+02 1.12410E-20
 2.45445E+02 1.33036E-20
 2.48482E+02 1.56048E-20
 2.50000E+02 1.68356E-20
 2.51557E+02 1.81545E-20
 2.54670E+02 2.09617E-20
 2.57822E+02 2.40345E-20
 2.61012E+02 2.73797E-20
 2.64242E+02 3.10031E-20
 2.67512E+02 3.49095E-20
 2.70823E+02 3.91023E-20
 2.74174E+02 4.35841E-20
 2.77567E+02 4.83563E-20
 2.81002E+02 5.34192E-20
 2.84480E+02 5.87721E-20
 2.88000E+02 6.44134E-20
 3.00000E+02 8.41833E-20
 3.03712E+02 9.08209E-20
 3.20281E+02 1.22898E-19
 3.37754E+02 1.59556E-19
 3.50000E+02 1.85970E-19
 3.56180E+02 1.99368E-19
 3.75611E+02 2.41353E-19
 3.96103E+02 2.84987E-19
 4.00000E+02 2.93185E-19
 4.17712E+02 3.29813E-19
 4.40500E+02 3.74995E-19
 4.50000E+02 3.93077E-19
 4.64532E+02 4.19828E-19
 4.89874E+02 4.63777E-19
 5.00000E+02 4.80329E-19
 5.16599E+02 5.06178E-19
 5.44782E+02 5.46411E-19
 5.50000E+02 5.53363E-19
 5.74503E+02 5.84005E-19
 6.00000E+02 6.12538E-19
 6.05845E+02 6.18620E-19
 6.38896E+02 6.50003E-19
 6.73751E+02 6.78005E-19
 7.00000E+02 6.95982E-19
 7.10508E+02 7.02472E-19
 7.49270E+02 7.23174E-19
 7.90146E+02 7.40265E-19
 8.00000E+02 7.43767E-19
 8.33252E+02 7.53955E-19
 8.78710E+02 7.64185E-19
 9.00000E+02 7.67728E-19
 9.26648E+02 7.71204E-19
 9.77201E+02 7.75157E-19
 1.00000E+03 7.75922E-19
 1.03051E+03 7.76103E-19
 1.08673E+03 7.74360E-19
 1.10000E+03 7.73620E-19
 1.14602E+03 7.70222E-19
 1.20854E+03 7.63824E-19
 1.25000E+03 7.58672E-19
 1.27447E+03 7.55360E-19
 1.34400E+03 7.45088E-19
 1.40000E+03 7.36129E-19
 1.50000E+03 7.19206E-19
 1.75000E+03 6.75233E-19
 2.00000E+03 6.32182E-19
 2.20000E+03 6.00224E-19
 2.50000E+03 5.57090E-19
 3.00000E+03 4.96617E-19
 3.50000E+03 4.46336E-19
 4.00000E+03 4.05560E-19
 4.50000E+03 3.72136E-19
 5.00000E+03 3.44108E-19
 5.50000E+03 3.20399E-19
 6.00000E+03 2.99997E-19
 7.00000E+03 2.66644E-19
 8.00000E+03 2.40541E-19
 9.00000E+03 2.19531E-19
 1.00000E+04 2.02178E-19
 1.10000E+04 1.87642E-19
 1.25000E+04 1.69697E-19
 1.40000E+04 1.55232E-19
 1.50000E+04 1.47006E-19
 1.75000E+04 1.30170E-19
 2.00000E+04 1.17203E-19
 2.20000E+04 1.08761E-19
 2.50000E+04 9.83756E-20
 3.00000E+04 8.53842E-20
 3.50000E+04 7.58249E-20
 4.00000E+04 6.84840E-20
 4.50000E+04 6.26596E-20
 5.00000E+04 5.79306E-20
 5.50000E+04 5.40076E-20
 6.00000E+04 5.06987E-20
 7.00000E+04 4.54218E-20
 8.00000E+04 4.13984E-20
 9.00000E+04 3.82280E-20
 1.00000E+05 3.56657E-20
 1.10000E+05 3.35515E-20
 1.25000E+05 3.09950E-20
 1.40000E+05 2.89728E-20
 1.50000E+05 2.78453E-20
 1.75000E+05 2.55849E-20
 2.00000E+05 2.38901E-20
 2.20000E+05 2.28154E-20
 2.50000E+05 2.15349E-20
 3.00000E+05 1.99958E-20
 3.50000E+05 1.89283E-20
 4.00000E+05 1.81568E-20
 4.50000E+05 1.75829E-20
 5.00000E+05 1.71468E-20
 5.50000E+05 1.68101E-20
 6.00000E+05 1.65477E-20
 7.00000E+05 1.61781E-20
 8.00000E+05 1.59477E-20
 9.00000E+05 1.58066E-20
 1.00000E+06 1.57251E-20
 1.10000E+06 1.56847E-20
 1.25000E+06 1.56756E-20
 1.40000E+06 1.57069E-20
 1.50000E+06 1.57423E-20
 1.75000E+06 1.58619E-20
 2.00000E+06 1.60057E-20
 2.20000E+06 1.61285E-20
 2.50000E+06 1.63164E-20
 3.00000E+06 1.66243E-20
 3.50000E+06 1.69155E-20
 4.00000E+06 1.71868E-20
 4.50000E+06 1.74387E-20
 5.00000E+06 1.76726E-20
 5.50000E+06 1.78904E-20
 6.00000E+06 1.80938E-20
 7.00000E+06 1.84633E-20
 8.00000E+06 1.87916E-20
 9.00000E+06 1.90865E-20
 1.00000E+07 1.93539E-20
 1.10000E+07 1.95983E-20
 1.25000E+07 1.99293E-20
 1.40000E+07 2.02256E-20
 1.50000E+07 2.04072E-20
 1.75000E+07 2.08154E-20
 2.00000E+07 2.11714E-20
 2.20000E+07 2.14267E-20
 2.50000E+07 2.17709E-20
 3.00000E+07 2.22636E-20
 3.50000E+07 2.26822E-20
 4.00000E+07 2.30455E-20
 4.50000E+07 2.33670E-20
 5.00000E+07 2.36549E-20
 5.50000E+07 2.39157E-20
 6.00000E+07 2.41538E-20
 7.00000E+07 2.45773E-20
 8.00000E+07 2.49435E-20
 9.00000E+07 2.52678E-20
 1.00000E+08 2.55574E-20
 1.10000E+08 2.58201E-20
 1.25000E+08 2.61725E-20
 1.40000E+08 2.64847E-20
 1.50000E+08 2.66748E-20
 1.75000E+08 2.71004E-20
 2.00000E+08 2.74690E-20
 2.20000E+08 2.77322E-20
 2.50000E+08 2.80861E-20
 3.00000E+08 2.85882E-20
 3.50000E+08 2.90153E-20
 4.00000E+08 2.93835E-20
 4.50000E+08 2.97092E-20
 5.00000E+08 3.00005E-20
 5.50000E+08 3.02640E-20
 6.00000E+08 3.05046E-20
 7.00000E+08 3.09310E-20
 8.00000E+08 3.13003E-20
 9.00000E+08 3.16261E-20
 1.00000E+09 3.19175E-20
 *** Electron scaled bremss x-section,  ZEQ = 5.00000E+00,  NDATA =  57
 1.00E+03 5.66991E+00 5.71707E+00 5.75943E+00 5.79334E+00 5.81981E+00
          5.85608E+00 5.87167E+00 5.87089E+00 5.85603E+00 5.83016E+00
          5.79725E+00 5.75819E+00 5.71333E+00 5.66332E+00 5.61003E+00
          5.55570E+00 5.50207E+00 5.45262E+00 5.41080E+00 5.37722E+00
          5.35005E+00 5.33691E+00 5.32302E+00 5.31125E+00 5.29931E+00
          5.29623E+00 5.29374E+00 5.29343E+00 5.29321E+00 5.29316E+00
          5.29313E+00 5.29314E+00                                     4.874E+00
 1.50E+03 6.34317E+00 6.38496E+00 6.42150E+00 6.44878E+00 6.46786E+00
          6.48677E+00 6.47866E+00 6.44525E+00 6.39011E+00 6.31930E+00
          6.24042E+00 6.15578E+00 6.06685E+00 5.97577E+00 5.88575E+00
          5.79988E+00 5.71879E+00 5.64256E+00 5.57148E+00 5.50646E+00
          5.44883E+00 5.42224E+00 5.39327E+00 5.36898E+00 5.35151E+00
          5.34747E+00 5.34366E+00 5.34318E+00 5.34281E+00 5.34274E+00
          5.34277E+00 5.34269E+00                                     5.196E+00
 2.00E+03 6.81430E+00 6.86370E+00 6.90320E+00 6.92534E+00 6.93255E+00
          6.91564E+00 6.86384E+00 6.78995E+00 6.69878E+00 6.59516E+00
          6.48483E+00 6.36951E+00 6.25013E+00 6.12907E+00 6.00999E+00
          5.89658E+00 5.78958E+00 5.68915E+00 5.59603E+00 5.51247E+00
          5.43786E+00 5.40175E+00 5.36657E+00 5.34050E+00 5.31790E+00
          5.31236E+00 5.30788E+00 5.30730E+00 5.30684E+00 5.30678E+00
          5.30675E+00 5.30670E+00                                     5.373E+00
 3.00E+03 7.48474E+00 7.52812E+00 7.55741E+00 7.56209E+00 7.54598E+00
          7.47226E+00 7.35541E+00 7.21589E+00 7.06095E+00 6.89690E+00
          6.73092E+00 6.56490E+00 6.39942E+00 6.23665E+00 6.07862E+00
          5.92788E+00 5.78502E+00 5.65003E+00 5.52354E+00 5.40789E+00
          5.30706E+00 5.26347E+00 5.22345E+00 5.19456E+00 5.16616E+00
          5.15940E+00 5.15409E+00 5.15337E+00 5.15283E+00 5.15277E+00
          5.15273E+00 5.15271E+00                                     5.550E+00
 4.00E+03 7.95831E+00 7.99304E+00 8.01027E+00 7.99701E+00 7.95840E+00
          7.83270E+00 7.65927E+00 7.46512E+00 7.25923E+00 7.04867E+00
          6.84127E+00 6.63853E+00 6.44034E+00 6.24814E+00 6.06268E+00
          5.88550E+00 5.71699E+00 5.55698E+00 5.40593E+00 5.26630E+00
          5.14492E+00 5.09463E+00 5.05017E+00 5.01916E+00 4.98782E+00
          4.98059E+00 4.97501E+00 4.97426E+00 4.97372E+00 4.97364E+00
          4.97358E+00 4.97358E+00                                     5.629E+00
 5.00E+03 8.32528E+00 8.35034E+00 8.35505E+00 8.32443E+00 8.26487E+00
          8.09247E+00 7.87001E+00 7.63000E+00 7.38255E+00 7.13505E+00
          6.89534E+00 6.66431E+00 6.44111E+00 6.22633E+00 6.01992E+00
          5.82261E+00 5.63458E+00 5.45531E+00 5.28506E+00 5.12626E+00
          4.98731E+00 4.93008E+00 4.88042E+00 4.84689E+00 4.81368E+00
          4.80627E+00 4.80063E+00 4.79987E+00 4.79932E+00 4.79926E+00
          4.79920E+00 4.79921E+00                                     5.668E+00
 6.00E+03 8.62423E+00 8.63923E+00 8.63150E+00 8.58437E+00 8.50539E+00
          8.29092E+00 8.02559E+00 7.74643E+00 7.46443E+00 7.18677E+00
          6.92099E+00 6.66729E+00 6.42406E+00 6.19106E+00 5.96784E+00
          5.75450E+00 5.55095E+00 5.35626E+00 5.17033E+00 4.99567E+00
          4.84117E+00 4.77684E+00 4.72141E+00 4.68489E+00 4.65030E+00
          4.64281E+00 4.63719E+00 4.63643E+00 4.63590E+00 4.63584E+00
          4.63578E+00 4.63578E+00                                     5.687E+00
 8.00E+03 9.09381E+00 9.08852E+00 9.05671E+00 8.97908E+00 8.86533E+00
          8.57791E+00 8.24077E+00 7.89817E+00 7.56166E+00 7.23753E+00
          6.93195E+00 6.64378E+00 6.36990E+00 6.10856E+00 5.85948E+00
          5.62184E+00 5.39493E+00 5.17679E+00 4.96645E+00 4.76655E+00
          4.58526E+00 4.50679E+00 4.43903E+00 4.39578E+00 4.35908E+00
          4.35152E+00 4.34595E+00 4.34523E+00 4.34471E+00 4.34466E+00
          4.34460E+00 4.34460E+00                                     5.697E+00
 1.00E+04 9.45735E+00 9.43210E+00 9.37749E+00 9.27234E+00 9.12819E+00
          8.77923E+00 8.38390E+00 7.99161E+00 7.61365E+00 7.25500E+00
          6.92018E+00 6.60643E+00 6.30979E+00 6.02713E+00 5.75878E+00
          5.50323E+00 5.25922E+00 5.02373E+00 4.79496E+00 4.57567E+00
          4.37216E+00 4.28057E+00 4.20076E+00 4.15044E+00 4.11139E+00
          4.10363E+00 4.09796E+00 4.09726E+00 4.09674E+00 4.09667E+00
          4.09663E+00 4.09661E+00                                     5.692E+00
 1.50E+04 1.01066E+01 1.00340E+01 9.92766E+00 9.76368E+00 9.55728E+00
          9.08844E+00 8.58540E+00 8.10502E+00 7.65621E+00 7.23990E+00
          6.85670E+00 6.49975E+00 6.16531E+00 5.84672E+00 5.54629E+00
          5.26092E+00 4.98827E+00 4.72357E+00 4.46364E+00 4.21098E+00
          3.96648E+00 3.84855E+00 3.74312E+00 3.67595E+00 3.62856E+00
          3.61922E+00 3.61242E+00 3.61163E+00 3.61102E+00 3.61091E+00
          3.61088E+00 3.61084E+00                                     5.659E+00
 2.00E+04 1.05546E+01 1.04384E+01 1.02865E+01 1.00739E+01 9.81849E+00
          9.26078E+00 8.68282E+00 8.14381E+00 7.64994E+00 7.19790E+00
          6.78373E+00 6.39997E+00 6.04188E+00 5.70095E+00 5.38046E+00
          5.07623E+00 4.78509E+00 4.50161E+00 4.22195E+00 3.94797E+00
          3.67554E+00 3.53856E+00 3.41353E+00 3.33187E+00 3.27430E+00
          3.26261E+00 3.25396E+00 3.25297E+00 3.25221E+00 3.25208E+00
          3.25205E+00 3.25201E+00                                     5.623E+00
 3.00E+04 1.11595E+01 1.09656E+01 1.07355E+01 1.04447E+01 1.01149E+01
          9.43098E+00 8.75405E+00 8.14080E+00 7.59182E+00 7.09770E+00
          6.64466E+00 6.22867E+00 5.84249E+00 5.47548E+00 5.13093E+00
          4.80417E+00 4.49033E+00 4.18401E+00 3.88102E+00 3.58126E+00
          3.27376E+00 3.11264E+00 2.96121E+00 2.85732E+00 2.77905E+00
          2.76211E+00 2.74924E+00 2.74774E+00 2.74660E+00 2.74640E+00
          2.74633E+00 2.74631E+00                                     5.561E+00
 4.00E+04 1.17385E+01 1.13433E+01 1.09439E+01 1.05398E+01 1.01441E+01
          9.41348E+00 8.74151E+00 8.12146E+00 7.54905E+00 7.02117E+00
          6.53043E+00 6.07892E+00 5.66705E+00 5.28350E+00 4.92641E+00
          4.58968E+00 4.26727E+00 3.95603E+00 3.64946E+00 3.33272E+00
          2.99445E+00 2.82143E+00 2.65699E+00 2.53729E+00 2.43620E+00
          2.42075E+00 2.40152E+00 2.39849E+00 2.39740E+00 2.39721E+00
          2.39731E+00 2.39710E+00                                     5.503E+00
 5.00E+04 1.19981E+01 1.15573E+01 1.11136E+01 1.06677E+01 1.02339E+01
          9.43993E+00 8.71731E+00 8.05770E+00 7.45469E+00 6.90252E+00
          6.39532E+00 5.93284E+00 5.51504E+00 5.12719E+00 4.76515E+00
          4.42471E+00 4.09708E+00 3.77882E+00 3.46329E+00 3.13586E+00
          2.78516E+00 2.60481E+00 2.43135E+00 2.30178E+00 2.18530E+00
          2.16405E+00 2.14166E+00 2.13840E+00 2.13681E+00 2.13658E+00
          2.13654E+00 2.13638E+00                                     5.456E+00
 6.00E+04 1.21908E+01 1.17114E+01 1.12303E+01 1.07499E+01 1.02850E+01
          9.44028E+00 8.67755E+00 7.98740E+00 7.36154E+00 6.79091E+00
          6.27162E+00 5.80305E+00 5.38200E+00 4.99229E+00 4.62753E+00
          4.28527E+00 3.95500E+00 3.63274E+00 3.31179E+00 2.97791E+00
          2.61995E+00 2.43522E+00 2.25597E+00 2.11935E+00 1.99018E+00
          1.96370E+00 1.93869E+00 1.93528E+00 1.93323E+00 1.93296E+00
          1.93280E+00 1.93267E+00                                     5.416E+00
 8.00E+04 1.24553E+01 1.19062E+01 1.13601E+01 1.08224E+01 1.03085E+01
          9.38695E+00 8.56835E+00 7.83885E+00 7.18662E+00 6.59760E+00
          6.06655E+00 5.59590E+00 5.17359E+00 4.78203E+00 4.41030E+00
          4.05800E+00 3.71670E+00 3.38391E+00 3.05632E+00 2.72198E+00
          2.36924E+00 2.18504E+00 1.99734E+00 1.84628E+00 1.70056E+00
          1.66477E+00 1.63609E+00 1.63264E+00 1.62973E+00 1.62937E+00
          1.62907E+00 1.62899E+00                                     5.350E+00
 1.00E+05 1.26916E+01 1.20662E+01 1.14511E+01 1.08574E+01 1.02989E+01
          9.31176E+00 8.45235E+00 7.69815E+00 7.03112E+00 6.43450E+00
          5.89730E+00 5.42302E+00 4.99645E+00 4.60023E+00 4.22350E+00
          3.86705E+00 3.52575E+00 3.19354E+00 2.86688E+00 2.53387E+00
          2.18231E+00 1.99765E+00 1.80694E+00 1.64960E+00 1.49051E+00
          1.45046E+00 1.41840E+00 1.41451E+00 1.41121E+00 1.41082E+00
          1.41046E+00 1.41037E+00                                     5.302E+00
 1.50E+05 1.31338E+01 1.23472E+01 1.15908E+01 1.08897E+01 1.02499E+01
          9.14271E+00 8.21180E+00 7.41553E+00 6.72138E+00 6.11115E+00
          5.57122E+00 5.09153E+00 4.65807E+00 4.25459E+00 3.87073E+00
          3.50627E+00 3.16638E+00 2.84012E+00 2.52189E+00 2.19989E+00
          1.86060E+00 1.68009E+00 1.48797E+00 1.32291E+00 1.14739E+00
          1.10160E+00 1.06482E+00 1.06033E+00 1.05654E+00 1.05609E+00
          1.05566E+00 1.05559E+00                                     5.234E+00
 2.00E+05 1.34902E+01 1.25670E+01 1.16946E+01 1.09127E+01 1.02163E+01
          9.02419E+00 8.03889E+00 7.21151E+00 6.50213E+00 5.88305E+00
          5.34095E+00 4.85894E+00 4.42051E+00 4.01222E+00 3.62434E+00
          3.25554E+00 2.91398E+00 2.59454E+00 2.28584E+00 1.97624E+00
          1.65131E+00 1.47691E+00 1.28731E+00 1.12067E+00 9.39903E-01
          8.91876E-01 8.53169E-01 8.48439E-01 8.44469E-01 8.43989E-01
          8.43537E-01 8.43501E-01                                     5.218E+00
 3.00E+05 1.41344E+01 1.29594E+01 1.18848E+01 1.09836E+01 1.02213E+01
          8.93715E+00 7.89105E+00 7.01223E+00 6.27315E+00 5.63637E+00
          5.07962E+00 4.58619E+00 4.13639E+00 3.71822E+00 3.32599E+00
          2.95768E+00 2.61578E+00 2.30229E+00 2.00171E+00 1.70490E+00
          1.40040E+00 1.23675E+00 1.05660E+00 8.94834E-01 7.11375E-01
          6.61782E-01 6.21860E-01 6.16630E-01 6.12780E-01 6.12300E-01
          6.11921E-01 6.11791E-01                                     5.297E+00
 4.00E+05 1.47273E+01 1.33555E+01 1.21255E+01 1.11380E+01 1.03285E+01
          8.96268E+00 7.86699E+00 6.94936E+00 6.18819E+00 5.54090E+00
          4.97143E+00 4.46310E+00 4.00266E+00 3.57931E+00 3.18425E+00
          2.81264E+00 2.46518E+00 2.14539E+00 1.84926E+00 1.55729E+00
          1.26257E+00 1.10832E+00 9.35357E-01 7.76014E-01 5.91771E-01
          5.42290E-01 5.01799E-01 4.96459E-01 4.92489E-01 4.91959E-01
          4.91589E-01 4.91459E-01                                     5.458E+00
 5.00E+05 1.52692E+01 1.37364E+01 1.23825E+01 1.13313E+01 1.04892E+01
          9.05459E+00 7.91842E+00 6.97152E+00 6.18827E+00 5.52639E+00
          4.94501E+00 4.42445E+00 3.95334E+00 3.52193E+00 3.12087E+00
          2.74439E+00 2.39163E+00 2.06433E+00 1.76496E+00 1.47515E+00
          1.18506E+00 1.03456E+00 8.64531E-01 7.06177E-01 5.20793E-01
          4.70841E-01 4.29850E-01 4.24440E-01 4.20400E-01 4.19860E-01
          4.19489E-01 4.19332E-01                                     5.660E+00
 6.00E+05 1.57159E+01 1.41129E+01 1.27008E+01 1.16102E+01 1.07308E+01
          9.18888E+00 7.97268E+00 6.99357E+00 6.20308E+00 5.54422E+00
          4.96467E+00 4.44149E+00 3.96351E+00 3.52245E+00 3.11082E+00
          2.72394E+00 2.36109E+00 2.02383E+00 1.71725E+00 1.43208E+00
          1.14472E+00 9.91783E-01 8.21304E-01 6.63875E-01 4.76265E-01
          4.24823E-01 3.83320E-01 3.78100E-01 3.73810E-01 3.73300E-01
          3.72810E-01 3.72699E-01                                     5.882E+00
 8.00E+05 1.65516E+01 1.47411E+01 1.31718E+01 1.20061E+01 1.10900E+01
          9.45232E+00 8.17464E+00 7.16904E+00 6.35807E+00 5.67784E+00
          5.07694E+00 4.53392E+00 4.03811E+00 3.58144E+00 3.15660E+00
          2.75826E+00 2.38368E+00 2.03155E+00 1.70471E+00 1.40830E+00
          1.11684E+00 9.61525E-01 7.87046E-01 6.24337E-01 4.28348E-01
          3.74358E-01 3.30628E-01 3.25088E-01 3.20568E-01 3.20028E-01
          3.19528E-01 3.19408E-01                                     6.333E+00
 1.00E+06 1.72342E+01 1.52662E+01 1.35779E+01 1.23559E+01 1.14144E+01
          9.71369E+00 8.39984E+00 7.37533E+00 6.54958E+00 5.85285E+00
          5.23481E+00 4.67582E+00 4.16583E+00 3.69639E+00 3.25985E+00
          2.85021E+00 2.46350E+00 2.09629E+00 1.74941E+00 1.43204E+00
          1.13099E+00 9.70138E-01 7.88148E-01 6.16949E-01 4.08759E-01
          3.51209E-01 3.04479E-01 2.98519E-01 2.93719E-01 2.93129E-01
          2.92599E-01 2.92509E-01                                     6.775E+00
 1.50E+06 1.85277E+01 1.62273E+01 1.42941E+01 1.29717E+01 1.20091E+01
          1.02804E+01 8.99675E+00 7.95432E+00 7.08438E+00 6.33289E+00
          5.66622E+00 5.06800E+00 4.52777E+00 4.03511E+00 3.57849E+00
          3.14860E+00 2.73879E+00 2.34137E+00 1.95241E+00 1.57651E+00
          1.22931E+00 1.05327E+00 8.46243E-01 6.45257E-01 4.01082E-01
          3.34263E-01 2.79055E-01 2.71785E-01 2.66415E-01 2.65695E-01
          2.65185E-01 2.65045E-01                                     7.768E+00
 2.00E+06 1.93378E+01 1.68930E+01 1.48562E+01 1.34971E+01 1.25305E+01
          1.07837E+01 9.50396E+00 8.44233E+00 7.54557E+00 6.76669E+00
          6.07734E+00 5.45933E+00 4.89919E+00 4.38544E+00 3.90815E+00
          3.45819E+00 3.02697E+00 2.60368E+00 2.18256E+00 1.76917E+00
          1.36793E+00 1.16340E+00 9.24054E-01 6.93480E-01 4.14006E-01
          3.37265E-01 2.72734E-01 2.64054E-01 2.57894E-01 2.57234E-01
          2.56504E-01 2.56284E-01                                     8.612E+00
 3.00E+06 2.02864E+01 1.77361E+01 1.56333E+01 1.42720E+01 1.33331E+01
          1.16054E+01 1.02992E+01 9.21495E+00 8.30016E+00 7.50298E+00
          6.78939E+00 6.14230E+00 5.55112E+00 5.00570E+00 4.49580E+00
          4.01252E+00 3.54881E+00 3.09583E+00 2.64251E+00 2.17335E+00
          1.66784E+00 1.39248E+00 1.08658E+00 7.97281E-01 4.56543E-01
          3.60047E-01 2.74970E-01 2.62760E-01 2.52991E-01 2.51922E-01
          2.51174E-01 2.50266E-01                                     9.957E+00
 4.00E+06 2.09049E+01 1.82399E+01 1.60712E+01 1.47243E+01 1.38418E+01
          1.21991E+01 1.09153E+01 9.83292E+00 8.90634E+00 8.09058E+00
          7.35597E+00 6.68730E+00 6.07498E+00 5.50974E+00 4.98202E+00
          4.48281E+00 4.00342E+00 3.53214E+00 3.05260E+00 2.53876E+00
          1.95455E+00 1.62004E+00 1.24735E+00 9.05424E-01 5.02565E-01
          3.87227E-01 2.84060E-01 2.67369E-01 2.51188E-01 2.49324E-01
          2.49820E-01 2.47515E-01                                     1.098E+01
 5.00E+06 2.11456E+01 1.84670E+01 1.63190E+01 1.50467E+01 1.42545E+01
          1.27114E+01 1.14486E+01 1.03504E+01 9.38981E+00 8.53859E+00
          7.78051E+00 7.10058E+00 6.48566E+00 5.92236E+00 5.39576E+00
          4.89319E+00 4.40565E+00 3.92079E+00 3.41843E+00 2.86162E+00
          2.20429E+00 1.82176E+00 1.39394E+00 1.01628E+00 5.53918E-01
          4.15514E-01 2.93948E-01 2.72999E-01 2.50230E-01 2.47327E-01
          2.48922E-01 2.45412E-01                                     1.179E+01
 6.00E+06 2.14527E+01 1.86912E+01 1.65043E+01 1.52639E+01 1.45299E+01
          1.30410E+01 1.18076E+01 1.07256E+01 9.77320E+00 8.92415E+00
          8.16389E+00 7.47871E+00 6.85660E+00 6.28517E+00 5.75059E+00
          5.24051E+00 4.74523E+00 4.25087E+00 3.73409E+00 3.15095E+00
          2.44432E+00 2.02276E+00 1.54134E+00 1.11561E+00 6.01989E-01
          4.46614E-01 3.04810E-01 2.78836E-01 2.49681E-01 2.45913E-01
          2.47600E-01 2.43936E-01                                     1.245E+01
 8.00E+06 2.18371E+01 1.89556E+01 1.67207E+01 1.55462E+01 1.49147E+01
          1.35083E+01 1.23287E+01 1.12804E+01 1.03492E+01 9.51203E+00
          8.75688E+00 8.07184E+00 7.44645E+00 6.86968E+00 6.32909E+00
          5.81281E+00 5.31022E+00 4.80532E+00 4.27012E+00 3.65005E+00
          2.86985E+00 2.38778E+00 1.81904E+00 1.30123E+00 6.95057E-01
          5.07360E-01 3.25951E-01 2.90373E-01 2.49257E-01 2.43647E-01
          2.45493E-01 2.41862E-01                                     1.347E+01
 1.00E+07 2.20788E+01 1.91205E+01 1.68588E+01 1.57367E+01 1.51818E+01
          1.38384E+01 1.27031E+01 1.16856E+01 1.07759E+01 9.95354E+00
          9.20830E+00 8.52951E+00 7.90772E+00 7.33274E+00 6.79283E+00
          6.27644E+00 5.77231E+00 5.26311E+00 4.71768E+00 4.07378E+00
          3.24182E+00 2.71493E+00 2.07842E+00 1.47742E+00 7.83883E-01
          5.65518E-01 3.46164E-01 3.01741E-01 2.49849E-01 2.42522E-01
          2.44101E-01 2.40378E-01                                     1.425E+01
 1.50E+07 2.23821E+01 1.93366E+01 1.70519E+01 1.60088E+01 1.55667E+01
          1.43410E+01 1.32873E+01 1.23330E+01 1.14720E+01 1.06878E+01
          9.97295E+00 9.31884E+00 8.71741E+00 8.15948E+00 7.63397E+00
          7.12930E+00 6.63364E+00 6.12784E+00 5.57632E+00 4.90557E+00
          4.00081E+00 3.40313E+00 2.64980E+00 1.89691E+00 9.84712E-01
          6.96403E-01 3.91180E-01 3.27837E-01 2.53472E-01 2.42093E-01
          2.40863E-01 2.37964E-01                                     1.560E+01
 2.00E+07 2.25074E+01 1.94229E+01 1.71320E+01 1.61348E+01 1.57574E+01
          1.46115E+01 1.36151E+01 1.27086E+01 1.18871E+01 1.11372E+01
          1.04522E+01 9.82484E+00 9.24763E+00 8.71184E+00 8.20629E+00
          7.71924E+00 7.23875E+00 6.74512E+00 6.20083E+00 5.52678E+00
          4.59233E+00 3.95706E+00 3.13194E+00 2.27113E+00 1.16105E+00
          8.10925E-01 4.30102E-01 3.50990E-01 2.58311E-01 2.43361E-01
          2.38494E-01 2.36427E-01                                     1.648E+01
 3.00E+07 2.26428E+01 1.95047E+01 1.72021E+01 1.62597E+01 1.59614E+01
          1.49118E+01 1.39887E+01 1.31468E+01 1.23824E+01 1.16846E+01
          1.10480E+01 1.04659E+01 9.93182E+00 9.43697E+00 8.96967E+00
          8.51783E+00 8.06999E+00 7.60653E+00 7.08884E+00 6.43319E+00
          5.49050E+00 4.82329E+00 3.91860E+00 2.91475E+00 1.46728E+00
          1.01078E+00 4.97980E-01 3.92444E-01 2.69657E-01 2.48484E-01
          2.36037E-01 2.34938E-01                                     1.763E+01
 4.00E+07 2.26737E+01 1.95168E+01 1.72160E+01 1.63084E+01 1.60560E+01
          1.50640E+01 1.41865E+01 1.33871E+01 1.26617E+01 1.20012E+01
          1.14005E+01 1.08536E+01 1.03540E+01 9.89305E+00 9.45854E+00
          9.03811E+00 8.62097E+00 8.18812E+00 7.70132E+00 7.07570E+00
          6.15241E+00 5.47941E+00 4.53790E+00 3.44657E+00 1.74863E+00
          1.18355E+00 5.56838E-01 4.29066E-01 2.81248E-01 2.54674E-01
          2.34888E-01 2.34262E-01                                     1.836E+01
 5.00E+07 2.26504E+01 1.95069E+01 1.72261E+01 1.63488E+01 1.61281E+01
          1.51782E+01 1.43318E+01 1.35586E+01 1.28557E+01 1.22160E+01
